[Header]LC2_TEST-DATA
Application Name	LabSolutions
Version	5.110
Data File Name	C:\LabSolutions\Data\Yone\FSEC-2022.11\17Nov22\LC2_TEST-DATA Elu. 5_17112022_7.lcd
Output Date	2022/11/17
Output Time	15:44:35

[File Information]
Type	Data File
Generated	2022/11/17 14:03:24
Generated by	System Administrator
Modified	2022/11/17 14:13:53
Modified by	System Administrator

[Sample Information]
Operator Name	System Administrator
Acquired	2022/11/17 14:03:52
Sample Type	0:Unknown
Level	0
Sample Name	TEST-DATA Elu. 5
Sample ID	
ISTD Amount1	1
ISTD Amount2	1
ISTD Amount3	1
ISTD Amount4	1
ISTD Amount5	1
ISTD Amount6	1
ISTD Amount7	1
ISTD Amount8	1
ISTD Amount9	1
ISTD Amount10	1
ISTD Amount11	1
ISTD Amount12	1
ISTD Amount13	1
ISTD Amount14	1
ISTD Amount15	1
ISTD Amount16	1
ISTD Amount17	1
ISTD Amount18	1
ISTD Amount19	1
ISTD Amount20	1
ISTD Amount21	1
ISTD Amount22	1
ISTD Amount23	1
ISTD Amount24	1
ISTD Amount25	1
ISTD Amount26	1
ISTD Amount27	1
ISTD Amount28	1
ISTD Amount29	1
ISTD Amount30	1
ISTD Amount31	1
ISTD Amount32	1
Sample Amount	1
Dilution Factor	1
Vial#	5
Injection Volume	100

[Original Files]
Data File	C:\LabSolutions\Data\Yone\FSEC-2022.11\17Nov22\LC2_TEST-DATA Elu. 5_17112022_7.lcd
Method File	C:\LabSolutions\Data\Yone\Methods\EnrichSEC650\EnrichSEC650-10min-16ml_EGFP-TRP-4MPa_Beetle.lcm
Batch File	C:\LabSolutions\Data\Yone\FSEC-2022.11\17Nov22\BatchLC2.lcb
Report Format File	C:\LabSolutions\System\DEFAULT.lsr

[File Description]


[Configuration]
Instrument Name	HPLC2-Beetle
Instrument #	2
Line #	1
# of Detectors	1
Detector ID	Detector A
Detector Name	???A
# of Channels	2

[Peak Table(Detector A-Ch1)]
# of Peaks	33
Peak#	R.Time	I.Time	F.Time	Area	Height	A/H	Conc.	Mark	ID#	Name	k'	Plate #	Plate Ht.	Tailing	Resolution	Sep.Factor	Area Ratio	Height Ratio	Conc. %	Norm Conc.
1	0.376	0.325	0.458	1925	453	4.251	0.000	 V 			0.000	168	894.913	0.000	0.000	0.000	0	0	0.000	0.000
2	0.485	0.458	0.592	1468	302	4.858	0.000	 V 			0.290	189	795.443	0.000	0.847	0.000	0	0	0.000	0.000
3	0.867	0.733	0.892	1397	209	6.694	0.000	 V 			1.308	190	791.523	0.000	1.945	4.509	0	0	0.000	0.000
4	1.009	0.983	1.092	1445	271	5.323	0.000	 V 			1.686	183	819.077	0.000	0.516	1.289	0	0	0.000	0.000
5	1.172	1.092	1.292	4713	660	7.140	0.000	 V 			2.120	486	308.605	0.000	0.638	1.257	0	0	0.000	0.000
6	1.529	1.350	1.617	4721	432	10.920	0.000	 V 			3.071	233	644.752	0.000	1.164	1.449	0	0	0.000	0.000
7	1.662	1.617	1.692	1340	436	3.071	0.000	 V 			3.423	4027	37.244	0.000	0.523	1.115	0	0	0.000	0.000
8	1.745	1.692	1.875	1716	364	4.712	0.000	 V 			3.646	2965	50.591	0.000	0.717	1.065	0	0	0.000	0.000
9	2.231	2.067	2.317	4980	595	8.362	0.000	 V 			4.939	1246	120.344	0.000	2.550	1.355	0	0	0.000	0.000
10	2.431	2.383	2.525	1650	411	4.012	0.000	 V 			5.472	6131	24.467	0.000	1.064	1.108	0	0	0.000	0.000
11	2.716	2.575	2.800	3318	465	7.142	0.000	   			6.229	2930	51.190	0.785	1.750	1.138	0	0	0.000	0.000
12	2.877	2.800	2.900	1294	388	3.336	0.000	   			6.658	1909	78.567	0.000	0.694	1.069	0	0	0.000	0.000
13	2.933	2.900	3.008	1656	388	4.268	0.000	 V 			6.808	1728	86.799	0.000	0.207	1.023	0	0	0.000	0.000
14	3.084	3.008	3.133	1586	262	6.051	0.000	 V 			7.210	2225	67.410	0.000	0.555	1.059	0	0	0.000	0.000
15	3.183	3.133	3.225	2053	583	3.520	0.000	 V 			7.472	9587	15.646	0.000	0.502	1.036	0	0	0.000	0.000
16	3.381	3.333	3.433	1016	236	4.301	0.000	   			8.001	3504	42.805	0.000	1.109	1.071	0	0	0.000	0.000
17	3.471	3.433	3.600	1669	447	3.733	0.000	 V 			8.240	24658	6.083	0.000	0.566	1.030	0	0	0.000	0.000
18	3.733	3.600	3.800	1936	336	5.755	0.000	   			8.938	11373	13.189	0.000	2.298	1.085	0	0	0.000	0.000
19	4.091	4.075	4.208	1262	259	4.878	0.000	 V 			9.890	11619	12.910	0.000	2.450	1.106	0	0	0.000	0.000
20	4.241	4.208	4.267	1024	398	2.574	0.000	   			10.290	16373	9.161	0.000	1.057	1.040	0	0	0.000	0.000
21	4.387	4.267	4.492	4924	527	9.343	0.000	 V 			10.679	3583	41.864	0.000	0.686	1.038	0	0	0.000	0.000
22	4.538	4.492	4.708	2444	349	6.995	0.000	 V 			11.079	17622	8.512	0.000	0.700	1.037	0	0	0.000	0.000
23	4.878	4.817	4.917	1254	386	3.249	0.000	   			11.986	34364	4.365	0.000	2.816	1.082	0	0	0.000	0.000
24	4.970	4.917	5.025	1934	471	4.108	0.000	 V 			12.231	22057	6.801	0.000	0.768	1.020	0	0	0.000	0.000
25	5.054	5.025	5.117	1173	301	3.893	0.000	 V 			12.454	11051	13.574	0.000	0.515	1.018	0	0	0.000	0.000
26	5.217	5.117	5.300	2197	298	7.360	0.000	 V 			12.887	11485	13.060	0.000	0.841	1.035	0	0	0.000	0.000
27	5.335	5.300	5.467	2938	383	7.676	0.000	 V 			13.202	13627	11.008	0.000	0.627	1.024	0	0	0.000	0.000
28	5.630	5.558	5.675	1501	266	5.640	0.000	   			13.986	15210	9.862	0.000	1.613	1.059	0	0	0.000	0.000
29	5.907	5.833	5.967	1328	224	5.923	0.000	 V 			14.724	13881	10.806	0.000	1.447	1.053	0	0	0.000	0.000
30	6.100	5.967	6.133	3837	578	6.638	0.000	 V 			15.238	11578	12.956	0.000	0.903	1.035	0	0	0.000	0.000
31	6.863	6.133	6.908	163257	6936	23.537	0.000	 V 			17.269	258	580.982	0.000	0.789	1.133	0	0	0.000	0.000
32	7.473	6.908	9.942	3485763	102853	33.891	0.000	SV 			18.893	1478	101.475	0.000	0.491	1.094	0	0	0.000	0.000
33	9.436	9.400	9.533	1454	277	5.244	0.000	TV 			24.118	65943	2.275	0.000	4.247	1.277	0	0	0.000	0.000

[Peak Table(Detector A-Ch2)]
# of Peaks	8
Peak#	R.Time	I.Time	F.Time	Area	Height	A/H	Conc.	Mark	ID#	Name	k'	Plate #	Plate Ht.	Tailing	Resolution	Sep.Factor	Area Ratio	Height Ratio	Conc. %	Norm Conc.
1	6.409	6.258	6.467	2783	274	10.171	0.000	 V 			0.000	4038	37.146	0.000	0.000	0.000	0	0	0.000	0.000
2	6.667	6.467	6.692	4830	454	10.634	0.000	 V 			0.040	1233	121.649	0.000	0.445	0.000	0	0	0.000	0.000
3	6.725	6.692	6.742	1322	447	2.954	0.000	 V 			0.049	0	0.000	0.000	0.000	1.222	0	0	0.000	0.000
4	6.826	6.742	6.842	2924	535	5.465	0.000	 V 			0.065	1348	111.297	0.000	0.000	1.319	0	0	0.000	0.000
5	6.947	6.842	6.983	4446	549	8.099	0.000	 V 			0.084	683	219.725	0.000	0.134	1.289	0	0	0.000	0.000
6	7.459	6.983	8.300	121350	3586	33.836	0.000	 V 			0.164	1379	108.771	0.000	0.549	1.953	0	0	0.000	0.000
7	8.325	8.300	8.400	1174	245	4.794	0.000	 V 			0.299	9319	16.096	0.000	1.508	1.824	0	0	0.000	0.000
8	8.885	8.400	9.850	94516	2484	38.046	0.000	 V 			0.386	1213	123.656	1.498	0.820	1.292	0	0	0.000	0.000

[Compound Results(Detector A)]
# of IDs	0

[Group Results(Detector A)]
# of Groups	0

[LC Chromatogram(Detector A-Ch1)]
Interval(msec)	500
# of Points	1201
Start Time(min)	0.000
End Time(min)	10.000
Intensity Units	mV
Intensity Multiplier	0.001
Ex. Wavelength(nm)	488
Em. Wavelength(nm)	507
R.Time (min)	Intensity
0.00000	-10
0.00833	-10
0.01667	32
0.02500	17
0.03333	-30
0.04167	-89
0.05000	-155
0.05833	-204
0.06667	-209
0.07500	-185
0.08333	-158
0.09167	-114
0.10000	-97
0.10833	-135
0.11667	-164
0.12500	-175
0.13333	-191
0.14167	-198
0.15000	-193
0.15833	-217
0.16667	-251
0.17500	-247
0.18333	-217
0.19167	-171
0.20000	-139
0.20833	-157
0.21667	-195
0.22500	-240
0.23333	-296
0.24167	-330
0.25000	-303
0.25833	-218
0.26667	-142
0.27500	-134
0.28333	-163
0.29167	-183
0.30000	-201
0.30833	-230
0.31667	-256
0.32500	-273
0.33333	-250
0.34167	-186
0.35000	-135
0.35833	-94
0.36667	4
0.37500	76
0.38333	24
0.39167	-67
0.40000	-146
0.40833	-211
0.41667	-198
0.42500	-150
0.43333	-171
0.44167	-216
0.45000	-254
0.45833	-290
0.46667	-267
0.47500	-172
0.48333	-112
0.49167	-144
0.50000	-202
0.50833	-220
0.51667	-208
0.52500	-194
0.53333	-199
0.54167	-210
0.55000	-226
0.55833	-261
0.56667	-296
0.57500	-345
0.58333	-416
0.59167	-452
0.60000	-420
0.60833	-359
0.61667	-338
0.62500	-375
0.63333	-442
0.64167	-483
0.65000	-463
0.65833	-432
0.66667	-394
0.67500	-318
0.68333	-268
0.69167	-261
0.70000	-256
0.70833	-282
0.71667	-349
0.72500	-418
0.73333	-463
0.74167	-438
0.75000	-376
0.75833	-364
0.76667	-391
0.77500	-401
0.78333	-364
0.79167	-332
0.80000	-347
0.80833	-357
0.81667	-326
0.82500	-300
0.83333	-323
0.84167	-341
0.85000	-333
0.85833	-317
0.86667	-297
0.87500	-314
0.88333	-374
0.89167	-409
0.90000	-407
0.90833	-397
0.91667	-377
0.92500	-329
0.93333	-291
0.94167	-287
0.95000	-295
0.95833	-320
0.96667	-344
0.97500	-359
0.98333	-368
0.99167	-336
1.00000	-273
1.00833	-248
1.01667	-267
1.02500	-282
1.03333	-288
1.04167	-295
1.05000	-297
1.05833	-300
1.06667	-316
1.07500	-326
1.08333	-328
1.09167	-347
1.10000	-334
1.10833	-241
1.11667	-137
1.12500	-75
1.13333	-53
1.14167	-72
1.15000	-72
1.15833	14
1.16667	114
1.17500	124
1.18333	58
1.19167	15
1.20000	11
1.20833	-31
1.21667	-99
1.22500	-160
1.23333	-222
1.24167	-292
1.25000	-335
1.25833	-322
1.26667	-315
1.27500	-345
1.28333	-374
1.29167	-342
1.30000	-282
1.30833	-279
1.31667	-306
1.32500	-337
1.33333	-378
1.34167	-395
1.35000	-397
1.35833	-395
1.36667	-361
1.37500	-330
1.38333	-343
1.39167	-366
1.40000	-350
1.40833	-305
1.41667	-279
1.42500	-276
1.43333	-305
1.44167	-345
1.45000	-317
1.45833	-245
1.46667	-220
1.47500	-229
1.48333	-235
1.49167	-243
1.50000	-227
1.50833	-181
1.51667	-153
1.52500	-140
1.53333	-139
1.54167	-166
1.55000	-175
1.55833	-168
1.56667	-192
1.57500	-231
1.58333	-258
1.59167	-306
1.60000	-367
1.60833	-417
1.61667	-443
1.62500	-410
1.63333	-343
1.64167	-297
1.65000	-228
1.65833	-149
1.66667	-158
1.67500	-247
1.68333	-344
1.69167	-404
1.70000	-387
1.70833	-344
1.71667	-351
1.72500	-349
1.73333	-286
1.74167	-229
1.75000	-234
1.75833	-276
1.76667	-333
1.77500	-391
1.78333	-441
1.79167	-477
1.80000	-489
1.80833	-499
1.81667	-531
1.82500	-563
1.83333	-574
1.84167	-578
1.85000	-583
1.85833	-587
1.86667	-599
1.87500	-606
1.88333	-601
1.89167	-585
1.90000	-561
1.90833	-552
1.91667	-560
1.92500	-550
1.93333	-535
1.94167	-506
1.95000	-470
1.95833	-481
1.96667	-529
1.97500	-544
1.98333	-498
1.99167	-485
2.00000	-501
2.00833	-487
2.01667	-497
2.02500	-525
2.03333	-512
2.04167	-488
2.05000	-479
2.05833	-481
2.06667	-496
2.07500	-492
2.08333	-485
2.09167	-504
2.10000	-477
2.10833	-419
2.11667	-406
2.12500	-418
2.13333	-437
2.14167	-437
2.15000	-373
2.15833	-290
2.16667	-256
2.17500	-243
2.18333	-212
2.19167	-214
2.20000	-233
2.20833	-186
2.21667	-109
2.22500	-40
2.23333	-25
2.24167	-80
2.25000	-100
2.25833	-63
2.26667	-93
2.27500	-193
2.28333	-260
2.29167	-324
2.30000	-394
2.30833	-420
2.31667	-424
2.32500	-387
2.33333	-287
2.34167	-227
2.35000	-281
2.35833	-387
2.36667	-474
2.37500	-520
2.38333	-525
2.39167	-502
2.40000	-469
2.40833	-403
2.41667	-305
2.42500	-232
2.43333	-217
2.44167	-256
2.45000	-314
2.45833	-368
2.46667	-437
2.47500	-488
2.48333	-506
2.49167	-532
2.50000	-556
2.50833	-570
2.51667	-608
2.52500	-632
2.53333	-569
2.54167	-495
2.55000	-492
2.55833	-537
2.56667	-606
2.57500	-661
2.58333	-648
2.59167	-601
2.60000	-576
2.60833	-566
2.61667	-550
2.62500	-516
2.63333	-467
2.64167	-429
2.65000	-387
2.65833	-341
2.66667	-294
2.67500	-255
2.68333	-283
2.69167	-333
2.70000	-298
2.70833	-217
2.71667	-197
2.72500	-227
2.73333	-267
2.74167	-300
2.75000	-312
2.75833	-345
2.76667	-419
2.77500	-508
2.78333	-588
2.79167	-649
2.80000	-662
2.80833	-622
2.81667	-576
2.82500	-538
2.83333	-536
2.84167	-574
2.85000	-563
2.85833	-456
2.86667	-337
2.87500	-292
2.88333	-308
2.89167	-339
2.90000	-355
2.90833	-354
2.91667	-335
2.92500	-306
2.93333	-304
2.94167	-350
2.95000	-387
2.95833	-401
2.96667	-456
2.97500	-527
2.98333	-556
2.99167	-568
3.00000	-592
3.00833	-612
3.01667	-603
3.02500	-558
3.03333	-529
3.04167	-531
3.05000	-519
3.05833	-506
3.06667	-509
3.07500	-488
3.08333	-464
3.09167	-479
3.10000	-470
3.10833	-459
3.11667	-507
3.12500	-545
3.13333	-508
3.14167	-430
3.15000	-373
3.15833	-342
3.16667	-294
3.17500	-211
3.18333	-165
3.19167	-229
3.20000	-362
3.20833	-482
3.21667	-585
3.22500	-644
3.23333	-617
3.24167	-578
3.25000	-576
3.25833	-574
3.26667	-598
3.27500	-645
3.28333	-657
3.29167	-651
3.30000	-659
3.30833	-678
3.31667	-728
3.32500	-781
3.33333	-782
3.34167	-758
3.35000	-721
3.35833	-657
3.36667	-596
3.37500	-556
3.38333	-548
3.39167	-569
3.40000	-582
3.40833	-584
3.41667	-591
3.42500	-605
3.43333	-616
3.44167	-594
3.45000	-534
3.45833	-432
3.46667	-344
3.47500	-342
3.48333	-441
3.49167	-573
3.50000	-642
3.50833	-639
3.51667	-622
3.52500	-624
3.53333	-660
3.54167	-709
3.55000	-730
3.55833	-746
3.56667	-758
3.57500	-754
3.58333	-763
3.59167	-783
3.60000	-795
3.60833	-777
3.61667	-738
3.62500	-712
3.63333	-708
3.64167	-712
3.65000	-706
3.65833	-706
3.66667	-693
3.67500	-670
3.68333	-670
3.69167	-681
3.70000	-666
3.70833	-624
3.71667	-573
3.72500	-508
3.73333	-475
3.74167	-506
3.75000	-526
3.75833	-518
3.76667	-556
3.77500	-625
3.78333	-684
3.79167	-729
3.80000	-739
3.80833	-732
3.81667	-702
3.82500	-621
3.83333	-584
3.84167	-627
3.85000	-662
3.85833	-662
3.86667	-660
3.87500	-677
3.88333	-718
3.89167	-750
3.90000	-757
3.90833	-762
3.91667	-791
3.92500	-826
3.93333	-835
3.94167	-829
3.95000	-810
3.95833	-786
3.96667	-723
3.97500	-648
3.98333	-648
3.99167	-688
4.00000	-703
4.00833	-708
4.01667	-716
4.02500	-713
4.03333	-701
4.04167	-680
4.05000	-662
4.05833	-683
4.06667	-722
4.07500	-729
4.08333	-688
4.09167	-665
4.10000	-696
4.10833	-724
4.11667	-697
4.12500	-656
4.13333	-680
4.14167	-733
4.15000	-777
4.15833	-828
4.16667	-863
4.17500	-874
4.18333	-905
4.19167	-950
4.20000	-981
4.20833	-989
4.21667	-915
4.22500	-751
4.23333	-625
4.24167	-598
4.25000	-631
4.25833	-683
4.26667	-716
4.27500	-706
4.28333	-648
4.29167	-593
4.30000	-591
4.30833	-624
4.31667	-668
4.32500	-679
4.33333	-639
4.34167	-580
4.35000	-545
4.35833	-566
4.36667	-591
4.37500	-549
4.38333	-500
4.39167	-501
4.40000	-535
4.40833	-613
4.41667	-676
4.42500	-670
4.43333	-640
4.44167	-649
4.45000	-701
4.45833	-765
4.46667	-818
4.47500	-867
4.48333	-939
4.49167	-986
4.50000	-951
4.50833	-889
4.51667	-850
4.52500	-775
4.53333	-710
4.54167	-710
4.55000	-736
4.55833	-789
4.56667	-840
4.57500	-852
4.58333	-869
4.59167	-902
4.60000	-894
4.60833	-872
4.61667	-886
4.62500	-905
4.63333	-912
4.64167	-882
4.65000	-823
4.65833	-843
4.66667	-924
4.67500	-964
4.68333	-996
4.69167	-1042
4.70000	-1075
4.70833	-1095
4.71667	-1092
4.72500	-1073
4.73333	-1065
4.74167	-1073
4.75000	-1072
4.75833	-1063
4.76667	-1040
4.77500	-1021
4.78333	-1030
4.79167	-1047
4.80000	-1072
4.80833	-1117
4.81667	-1159
4.82500	-1156
4.83333	-1123
4.84167	-1071
4.85000	-1004
4.85833	-931
4.86667	-842
4.87500	-771
4.88333	-778
4.89167	-847
4.90000	-917
4.90833	-966
4.91667	-974
4.92500	-949
4.93333	-938
4.94167	-912
4.95000	-841
4.95833	-750
4.96667	-684
4.97500	-689
4.98333	-764
4.99167	-838
5.00000	-871
5.00833	-918
5.01667	-979
5.02500	-1010
5.03333	-998
5.04167	-924
5.05000	-852
5.05833	-851
5.06667	-891
5.07500	-928
5.08333	-952
5.09167	-962
5.10000	-965
5.10833	-989
5.11667	-1019
5.12500	-1019
5.13333	-1009
5.14167	-994
5.15000	-957
5.15833	-903
5.16667	-868
5.17500	-880
5.18333	-911
5.19167	-927
5.20000	-893
5.20833	-861
5.21667	-850
5.22500	-859
5.23333	-914
5.24167	-978
5.25000	-1012
5.25833	-1017
5.26667	-1008
5.27500	-993
5.28333	-998
5.29167	-1017
5.30000	-1021
5.30833	-999
5.31667	-917
5.32500	-808
5.33333	-763
5.34167	-780
5.35000	-803
5.35833	-812
5.36667	-818
5.37500	-836
5.38333	-850
5.39167	-796
5.40000	-721
5.40833	-727
5.41667	-758
5.42500	-772
5.43333	-834
5.44167	-930
5.45000	-994
5.45833	-1037
5.46667	-1066
5.47500	-1045
5.48333	-1001
5.49167	-967
5.50000	-948
5.50833	-910
5.51667	-868
5.52500	-904
5.53333	-986
5.54167	-1040
5.55000	-1092
5.55833	-1141
5.56667	-1090
5.57500	-978
5.58333	-936
5.59167	-941
5.60000	-923
5.60833	-903
5.61667	-887
5.62500	-870
5.63333	-869
5.64167	-875
5.65000	-876
5.65833	-895
5.66667	-926
5.67500	-939
5.68333	-933
5.69167	-910
5.70000	-887
5.70833	-895
5.71667	-916
5.72500	-946
5.73333	-1007
5.74167	-1053
5.75000	-1054
5.75833	-1005
5.76667	-939
5.77500	-917
5.78333	-924
5.79167	-921
5.80000	-921
5.80833	-961
5.81667	-1017
5.82500	-1060
5.83333	-1091
5.84167	-1073
5.85000	-987
5.85833	-924
5.86667	-926
5.87500	-952
5.88333	-975
5.89167	-949
5.90000	-898
5.90833	-892
5.91667	-904
5.92500	-913
5.93333	-948
5.94167	-968
5.95000	-952
5.95833	-964
5.96667	-987
5.97500	-977
5.98333	-976
5.99167	-993
6.00000	-977
6.00833	-906
6.01667	-823
6.02500	-774
6.03333	-724
6.04167	-673
6.05000	-647
6.05833	-625
6.06667	-592
6.07500	-558
6.08333	-558
6.09167	-551
6.10000	-525
6.10833	-549
6.11667	-624
6.12500	-691
6.13333	-709
6.14167	-667
6.15000	-584
6.15833	-507
6.16667	-469
6.17500	-462
6.18333	-459
6.19167	-440
6.20000	-409
6.20833	-385
6.21667	-353
6.22500	-311
6.23333	-292
6.24167	-271
6.25000	-215
6.25833	-162
6.26667	-145
6.27500	-125
6.28333	-80
6.29167	-13
6.30000	66
6.30833	135
6.31667	216
6.32500	346
6.33333	480
6.34167	573
6.35000	646
6.35833	702
6.36667	782
6.37500	911
6.38333	993
6.39167	995
6.40000	987
6.40833	979
6.41667	1006
6.42500	1051
6.43333	1061
6.44167	1069
6.45000	1118
6.45833	1195
6.46667	1297
6.47500	1429
6.48333	1548
6.49167	1626
6.50000	1670
6.50833	1688
6.51667	1732
6.52500	1832
6.53333	1977
6.54167	2145
6.55000	2325
6.55833	2471
6.56667	2567
6.57500	2654
6.58333	2738
6.59167	2827
6.60000	2916
6.60833	3006
6.61667	3153
6.62500	3339
6.63333	3489
6.64167	3593
6.65000	3672
6.65833	3757
6.66667	3874
6.67500	4004
6.68333	4132
6.69167	4263
6.70000	4377
6.70833	4490
6.71667	4635
6.72500	4805
6.73333	4975
6.74167	5148
6.75000	5257
6.75833	5270
6.76667	5301
6.77500	5404
6.78333	5514
6.79167	5588
6.80000	5656
6.80833	5758
6.81667	5861
6.82500	5892
6.83333	5861
6.84167	5843
6.85000	5860
6.85833	5884
6.86667	5887
6.87500	5855
6.88333	5798
6.89167	5737
6.90000	5694
6.90833	5665
6.91667	5676
6.92500	5706
6.93333	5716
6.94167	5741
6.95000	5787
6.95833	5821
6.96667	5865
6.97500	5900
6.98333	5933
6.99167	6046
7.00000	6174
7.00833	6229
7.01667	6253
7.02500	6272
7.03333	6284
7.04167	6337
7.05000	6457
7.05833	6623
7.06667	6846
7.07500	7133
7.08333	7431
7.09167	7753
7.10000	8142
7.10833	8599
7.11667	9158
7.12500	9821
7.13333	10552
7.14167	11371
7.15000	12308
7.15833	13372
7.16667	14601
7.17500	15971
7.18333	17442
7.19167	19062
7.20000	20862
7.20833	22798
7.21667	24893
7.22500	27209
7.23333	29718
7.24167	32397
7.25000	35266
7.25833	38295
7.26667	41477
7.27500	44794
7.28333	48135
7.29167	51482
7.30000	54891
7.30833	58336
7.31667	61813
7.32500	65339
7.33333	68844
7.34167	72260
7.35000	75577
7.35833	78767
7.36667	81802
7.37500	84682
7.38333	87369
7.39167	89859
7.40000	92156
7.40833	94243
7.41667	96115
7.42500	97743
7.43333	99093
7.44167	100162
7.45000	100941
7.45833	101457
7.46667	101770
7.47500	101846
7.48333	101635
7.49167	101171
7.50000	100526
7.50833	99694
7.51667	98682
7.52500	97531
7.53333	96223
7.54167	94782
7.55000	93254
7.55833	91598
7.56667	89844
7.57500	88052
7.58333	86179
7.59167	84223
7.60000	82221
7.60833	80187
7.61667	78166
7.62500	76152
7.63333	74091
7.64167	72024
7.65000	69997
7.65833	68008
7.66667	66108
7.67500	64260
7.68333	62408
7.69167	60591
7.70000	58801
7.70833	57017
7.71667	55277
7.72500	53618
7.73333	52013
7.74167	50429
7.75000	48873
7.75833	47354
7.76667	45883
7.77500	44424
7.78333	42997
7.79167	41656
7.80000	40369
7.80833	39115
7.81667	37867
7.82500	36599
7.83333	35353
7.84167	34147
7.85000	32976
7.85833	31878
7.86667	30839
7.87500	29829
7.88333	28886
7.89167	27986
7.90000	27095
7.90833	26208
7.91667	25308
7.92500	24421
7.93333	23572
7.94167	22750
7.95000	21949
7.95833	21193
7.96667	20489
7.97500	19816
7.98333	19174
7.99167	18561
8.00000	17958
8.00833	17379
8.01667	16828
8.02500	16285
8.03333	15753
8.04167	15238
8.05000	14773
8.05833	14337
8.06667	13851
8.07500	13328
8.08333	12853
8.09167	12445
8.10000	12050
8.10833	11639
8.11667	11235
8.12500	10866
8.13333	10546
8.14167	10229
8.15000	9888
8.15833	9561
8.16667	9259
8.17500	8963
8.18333	8687
8.19167	8458
8.20000	8248
8.20833	8055
8.21667	7877
8.22500	7678
8.23333	7495
8.24167	7352
8.25000	7175
8.25833	6934
8.26667	6681
8.27500	6451
8.28333	6272
8.29167	6133
8.30000	6023
8.30833	5945
8.31667	5841
8.32500	5694
8.33333	5568
8.34167	5476
8.35000	5366
8.35833	5237
8.36667	5110
8.37500	4977
8.38333	4869
8.39167	4779
8.40000	4684
8.40833	4632
8.41667	4586
8.42500	4485
8.43333	4363
8.44167	4213
8.45000	4024
8.45833	3867
8.46667	3751
8.47500	3639
8.48333	3545
8.49167	3468
8.50000	3406
8.50833	3404
8.51667	3399
8.52500	3299
8.53333	3158
8.54167	3026
8.55000	2890
8.55833	2768
8.56667	2675
8.57500	2593
8.58333	2529
8.59167	2484
8.60000	2403
8.60833	2314
8.61667	2311
8.62500	2323
8.63333	2270
8.64167	2191
8.65000	2081
8.65833	1940
8.66667	1818
8.67500	1745
8.68333	1735
8.69167	1770
8.70000	1809
8.70833	1808
8.71667	1778
8.72500	1729
8.73333	1630
8.74167	1525
8.75000	1503
8.75833	1515
8.76667	1493
8.77500	1510
8.78333	1589
8.79167	1642
8.80000	1638
8.80833	1588
8.81667	1524
8.82500	1488
8.83333	1478
8.84167	1470
8.85000	1436
8.85833	1368
8.86667	1296
8.87500	1236
8.88333	1182
8.89167	1162
8.90000	1159
8.90833	1135
8.91667	1118
8.92500	1102
8.93333	1057
8.94167	1044
8.95000	1079
8.95833	1079
8.96667	1040
8.97500	998
8.98333	977
8.99167	982
9.00000	973
9.00833	924
9.01667	876
9.02500	842
9.03333	800
9.04167	774
9.05000	762
9.05833	727
9.06667	701
9.07500	708
9.08333	718
9.09167	712
9.10000	680
9.10833	646
9.11667	645
9.12500	641
9.13333	599
9.14167	573
9.15000	576
9.15833	544
9.16667	482
9.17500	428
9.18333	385
9.19167	357
9.20000	349
9.20833	342
9.21667	337
9.22500	345
9.23333	353
9.24167	375
9.25000	391
9.25833	376
9.26667	368
9.27500	367
9.28333	349
9.29167	312
9.30000	271
9.30833	243
9.31667	230
9.32500	215
9.33333	191
9.34167	182
9.35000	194
9.35833	218
9.36667	256
9.37500	283
9.38333	252
9.39167	195
9.40000	165
9.40833	166
9.41667	200
9.42500	245
9.43333	260
9.44167	257
9.45000	275
9.45833	272
9.46667	220
9.47500	150
9.48333	72
9.49167	13
9.50000	-0
9.50833	-16
9.51667	-59
9.52500	-96
9.53333	-118
9.54167	-128
9.55000	-120
9.55833	-114
9.56667	-134
9.57500	-167
9.58333	-193
9.59167	-232
9.60000	-265
9.60833	-268
9.61667	-274
9.62500	-291
9.63333	-295
9.64167	-308
9.65000	-327
9.65833	-316
9.66667	-317
9.67500	-342
9.68333	-367
9.69167	-415
9.70000	-502
9.70833	-598
9.71667	-678
9.72500	-724
9.73333	-741
9.74167	-776
9.75000	-805
9.75833	-803
9.76667	-804
9.77500	-821
9.78333	-837
9.79167	-840
9.80000	-826
9.80833	-809
9.81667	-809
9.82500	-803
9.83333	-771
9.84167	-725
9.85000	-692
9.85833	-682
9.86667	-700
9.87500	-734
9.88333	-758
9.89167	-790
9.90000	-823
9.90833	-815
9.91667	-795
9.92500	-807
9.93333	-824
9.94167	-834
9.95000	-833
9.95833	-825
9.96667	-827
9.97500	-825
9.98333	-820
9.99167	-819
10.00000	-811

[LC Chromatogram(Detector A-Ch2)]
Interval(msec)	500
# of Points	1201
Start Time(min)	0.000
End Time(min)	10.000
Intensity Units	mV
Intensity Multiplier	0.001
Ex. Wavelength(nm)	295
Em. Wavelength(nm)	330
R.Time (min)	Intensity
0.00000	-83
0.00833	-83
0.01667	9
0.02500	19
0.03333	16
0.04167	5
0.05000	-9
0.05833	-37
0.06667	-68
0.07500	-78
0.08333	-71
0.09167	-60
0.10000	-48
0.10833	-42
0.11667	-48
0.12500	-68
0.13333	-90
0.14167	-89
0.15000	-76
0.15833	-77
0.16667	-90
0.17500	-94
0.18333	-87
0.19167	-77
0.20000	-72
0.20833	-76
0.21667	-84
0.22500	-85
0.23333	-74
0.24167	-57
0.25000	-48
0.25833	-49
0.26667	-57
0.27500	-68
0.28333	-84
0.29167	-104
0.30000	-115
0.30833	-124
0.31667	-136
0.32500	-135
0.33333	-126
0.34167	-124
0.35000	-130
0.35833	-135
0.36667	-130
0.37500	-117
0.38333	-121
0.39167	-151
0.40000	-174
0.40833	-169
0.41667	-145
0.42500	-112
0.43333	-85
0.44167	-71
0.45000	-73
0.45833	-90
0.46667	-116
0.47500	-143
0.48333	-162
0.49167	-160
0.50000	-146
0.50833	-137
0.51667	-139
0.52500	-153
0.53333	-166
0.54167	-166
0.55000	-156
0.55833	-146
0.56667	-145
0.57500	-150
0.58333	-148
0.59167	-142
0.60000	-141
0.60833	-142
0.61667	-145
0.62500	-146
0.63333	-140
0.64167	-135
0.65000	-138
0.65833	-139
0.66667	-140
0.67500	-147
0.68333	-145
0.69167	-131
0.70000	-122
0.70833	-131
0.71667	-144
0.72500	-147
0.73333	-153
0.74167	-161
0.75000	-160
0.75833	-154
0.76667	-152
0.77500	-157
0.78333	-168
0.79167	-182
0.80000	-195
0.80833	-201
0.81667	-194
0.82500	-177
0.83333	-166
0.84167	-163
0.85000	-166
0.85833	-178
0.86667	-188
0.87500	-189
0.88333	-182
0.89167	-174
0.90000	-173
0.90833	-179
0.91667	-183
0.92500	-188
0.93333	-203
0.94167	-212
0.95000	-206
0.95833	-202
0.96667	-207
0.97500	-206
0.98333	-194
0.99167	-184
1.00000	-186
1.00833	-202
1.01667	-223
1.02500	-237
1.03333	-243
1.04167	-244
1.05000	-241
1.05833	-238
1.06667	-246
1.07500	-240
1.08333	-202
1.09167	-167
1.10000	-157
1.10833	-158
1.11667	-162
1.12500	-174
1.13333	-184
1.14167	-181
1.15000	-178
1.15833	-185
1.16667	-197
1.17500	-200
1.18333	-189
1.19167	-182
1.20000	-188
1.20833	-198
1.21667	-208
1.22500	-216
1.23333	-222
1.24167	-220
1.25000	-210
1.25833	-197
1.26667	-185
1.27500	-182
1.28333	-195
1.29167	-212
1.30000	-217
1.30833	-210
1.31667	-191
1.32500	-171
1.33333	-169
1.34167	-178
1.35000	-185
1.35833	-196
1.36667	-206
1.37500	-214
1.38333	-226
1.39167	-229
1.40000	-221
1.40833	-209
1.41667	-200
1.42500	-195
1.43333	-195
1.44167	-200
1.45000	-211
1.45833	-216
1.46667	-204
1.47500	-190
1.48333	-191
1.49167	-199
1.50000	-211
1.50833	-221
1.51667	-213
1.52500	-201
1.53333	-199
1.54167	-200
1.55000	-197
1.55833	-185
1.56667	-166
1.57500	-152
1.58333	-154
1.59167	-161
1.60000	-162
1.60833	-167
1.61667	-173
1.62500	-179
1.63333	-192
1.64167	-210
1.65000	-219
1.65833	-215
1.66667	-207
1.67500	-193
1.68333	-161
1.69167	-126
1.70000	-116
1.70833	-134
1.71667	-161
1.72500	-174
1.73333	-167
1.74167	-163
1.75000	-170
1.75833	-177
1.76667	-190
1.77500	-195
1.78333	-180
1.79167	-164
1.80000	-152
1.80833	-154
1.81667	-168
1.82500	-177
1.83333	-178
1.84167	-176
1.85000	-183
1.85833	-199
1.86667	-207
1.87500	-201
1.88333	-196
1.89167	-203
1.90000	-215
1.90833	-211
1.91667	-196
1.92500	-186
1.93333	-181
1.94167	-174
1.95000	-167
1.95833	-169
1.96667	-179
1.97500	-186
1.98333	-187
1.99167	-182
2.00000	-172
2.00833	-165
2.01667	-163
2.02500	-163
2.03333	-166
2.04167	-168
2.05000	-174
2.05833	-193
2.06667	-220
2.07500	-238
2.08333	-236
2.09167	-232
2.10000	-239
2.10833	-237
2.11667	-220
2.12500	-190
2.13333	-164
2.14167	-157
2.15000	-167
2.15833	-188
2.16667	-197
2.17500	-185
2.18333	-181
2.19167	-195
2.20000	-206
2.20833	-213
2.21667	-214
2.22500	-206
2.23333	-206
2.24167	-214
2.25000	-210
2.25833	-205
2.26667	-208
2.27500	-202
2.28333	-185
2.29167	-165
2.30000	-146
2.30833	-133
2.31667	-138
2.32500	-155
2.33333	-175
2.34167	-199
2.35000	-218
2.35833	-228
2.36667	-231
2.37500	-227
2.38333	-225
2.39167	-228
2.40000	-228
2.40833	-225
2.41667	-233
2.42500	-238
2.43333	-226
2.44167	-215
2.45000	-221
2.45833	-240
2.46667	-268
2.47500	-288
2.48333	-289
2.49167	-285
2.50000	-280
2.50833	-273
2.51667	-272
2.52500	-265
2.53333	-250
2.54167	-239
2.55000	-223
2.55833	-204
2.56667	-190
2.57500	-176
2.58333	-165
2.59167	-163
2.60000	-177
2.60833	-191
2.61667	-202
2.62500	-210
2.63333	-201
2.64167	-190
2.65000	-198
2.65833	-212
2.66667	-220
2.67500	-228
2.68333	-236
2.69167	-235
2.70000	-228
2.70833	-224
2.71667	-220
2.72500	-219
2.73333	-229
2.74167	-238
2.75000	-239
2.75833	-245
2.76667	-247
2.77500	-235
2.78333	-231
2.79167	-238
2.80000	-240
2.80833	-231
2.81667	-211
2.82500	-196
2.83333	-203
2.84167	-223
2.85000	-238
2.85833	-245
2.86667	-246
2.87500	-240
2.88333	-233
2.89167	-226
2.90000	-225
2.90833	-236
2.91667	-251
2.92500	-260
2.93333	-267
2.94167	-278
2.95000	-291
2.95833	-293
2.96667	-283
2.97500	-271
2.98333	-262
2.99167	-258
3.00000	-260
3.00833	-272
3.01667	-287
3.02500	-298
3.03333	-301
3.04167	-295
3.05000	-291
3.05833	-291
3.06667	-297
3.07500	-303
3.08333	-295
3.09167	-285
3.10000	-289
3.10833	-296
3.11667	-294
3.12500	-288
3.13333	-283
3.14167	-279
3.15000	-271
3.15833	-262
3.16667	-255
3.17500	-253
3.18333	-246
3.19167	-238
3.20000	-240
3.20833	-245
3.21667	-251
3.22500	-265
3.23333	-286
3.24167	-304
3.25000	-309
3.25833	-311
3.26667	-312
3.27500	-306
3.28333	-297
3.29167	-292
3.30000	-286
3.30833	-277
3.31667	-286
3.32500	-308
3.33333	-313
3.34167	-304
3.35000	-292
3.35833	-285
3.36667	-290
3.37500	-293
3.38333	-281
3.39167	-268
3.40000	-255
3.40833	-245
3.41667	-251
3.42500	-269
3.43333	-287
3.44167	-303
3.45000	-315
3.45833	-313
3.46667	-295
3.47500	-279
3.48333	-267
3.49167	-253
3.50000	-237
3.50833	-211
3.51667	-188
3.52500	-190
3.53333	-206
3.54167	-222
3.55000	-234
3.55833	-241
3.56667	-240
3.57500	-238
3.58333	-241
3.59167	-243
3.60000	-245
3.60833	-254
3.61667	-268
3.62500	-284
3.63333	-295
3.64167	-298
3.65000	-293
3.65833	-291
3.66667	-293
3.67500	-286
3.68333	-268
3.69167	-240
3.70000	-213
3.70833	-212
3.71667	-232
3.72500	-249
3.73333	-261
3.74167	-275
3.75000	-285
3.75833	-286
3.76667	-272
3.77500	-245
3.78333	-236
3.79167	-244
3.80000	-249
3.80833	-259
3.81667	-276
3.82500	-284
3.83333	-275
3.84167	-255
3.85000	-235
3.85833	-223
3.86667	-225
3.87500	-238
3.88333	-251
3.89167	-256
3.90000	-263
3.90833	-274
3.91667	-271
3.92500	-255
3.93333	-256
3.94167	-261
3.95000	-254
3.95833	-251
3.96667	-255
3.97500	-255
3.98333	-245
3.99167	-243
4.00000	-253
4.00833	-256
4.01667	-246
4.02500	-236
4.03333	-234
4.04167	-243
4.05000	-261
4.05833	-275
4.06667	-284
4.07500	-294
4.08333	-301
4.09167	-296
4.10000	-287
4.10833	-288
4.11667	-279
4.12500	-255
4.13333	-235
4.14167	-227
4.15000	-234
4.15833	-258
4.16667	-279
4.17500	-280
4.18333	-267
4.19167	-259
4.20000	-261
4.20833	-273
4.21667	-286
4.22500	-291
4.23333	-294
4.24167	-290
4.25000	-278
4.25833	-272
4.26667	-267
4.27500	-261
4.28333	-268
4.29167	-284
4.30000	-294
4.30833	-291
4.31667	-277
4.32500	-262
4.33333	-253
4.34167	-252
4.35000	-258
4.35833	-264
4.36667	-272
4.37500	-276
4.38333	-272
4.39167	-265
4.40000	-260
4.40833	-265
4.41667	-272
4.42500	-274
4.43333	-270
4.44167	-260
4.45000	-251
4.45833	-248
4.46667	-260
4.47500	-283
4.48333	-306
4.49167	-314
4.50000	-300
4.50833	-291
4.51667	-293
4.52500	-300
4.53333	-318
4.54167	-327
4.55000	-313
4.55833	-288
4.56667	-260
4.57500	-243
4.58333	-237
4.59167	-234
4.60000	-235
4.60833	-240
4.61667	-239
4.62500	-242
4.63333	-257
4.64167	-267
4.65000	-271
4.65833	-274
4.66667	-274
4.67500	-275
4.68333	-275
4.69167	-267
4.70000	-255
4.70833	-248
4.71667	-252
4.72500	-269
4.73333	-296
4.74167	-314
4.75000	-311
4.75833	-311
4.76667	-324
4.77500	-333
4.78333	-332
4.79167	-316
4.80000	-293
4.80833	-281
4.81667	-277
4.82500	-273
4.83333	-271
4.84167	-265
4.85000	-255
4.85833	-247
4.86667	-255
4.87500	-278
4.88333	-292
4.89167	-286
4.90000	-262
4.90833	-239
4.91667	-239
4.92500	-257
4.93333	-279
4.94167	-293
4.95000	-295
4.95833	-276
4.96667	-247
4.97500	-229
4.98333	-232
4.99167	-244
5.00000	-259
5.00833	-273
5.01667	-275
5.02500	-275
5.03333	-284
5.04167	-291
5.05000	-285
5.05833	-268
5.06667	-246
5.07500	-240
5.08333	-254
5.09167	-267
5.10000	-268
5.10833	-261
5.11667	-253
5.12500	-244
5.13333	-236
5.14167	-231
5.15000	-229
5.15833	-229
5.16667	-224
5.17500	-221
5.18333	-223
5.19167	-223
5.20000	-219
5.20833	-219
5.21667	-222
5.22500	-237
5.23333	-256
5.24167	-255
5.25000	-238
5.25833	-229
5.26667	-232
5.27500	-237
5.28333	-249
5.29167	-260
5.30000	-268
5.30833	-283
5.31667	-298
5.32500	-295
5.33333	-284
5.34167	-276
5.35000	-265
5.35833	-249
5.36667	-232
5.37500	-215
5.38333	-209
5.39167	-216
5.40000	-221
5.40833	-223
5.41667	-234
5.42500	-247
5.43333	-272
5.44167	-307
5.45000	-323
5.45833	-316
5.46667	-305
5.47500	-290
5.48333	-270
5.49167	-254
5.50000	-251
5.50833	-257
5.51667	-264
5.52500	-265
5.53333	-269
5.54167	-287
5.55000	-302
5.55833	-298
5.56667	-279
5.57500	-263
5.58333	-267
5.59167	-280
5.60000	-288
5.60833	-290
5.61667	-300
5.62500	-316
5.63333	-321
5.64167	-304
5.65000	-278
5.65833	-257
5.66667	-244
5.67500	-248
5.68333	-269
5.69167	-296
5.70000	-313
5.70833	-321
5.71667	-320
5.72500	-310
5.73333	-298
5.74167	-289
5.75000	-283
5.75833	-281
5.76667	-272
5.77500	-251
5.78333	-243
5.79167	-247
5.80000	-247
5.80833	-257
5.81667	-278
5.82500	-296
5.83333	-309
5.84167	-317
5.85000	-316
5.85833	-305
5.86667	-289
5.87500	-279
5.88333	-277
5.89167	-271
5.90000	-259
5.90833	-246
5.91667	-231
5.92500	-222
5.93333	-219
5.94167	-218
5.95000	-221
5.95833	-224
5.96667	-219
5.97500	-215
5.98333	-230
5.99167	-264
6.00000	-291
6.00833	-297
6.01667	-286
6.02500	-266
6.03333	-240
6.04167	-210
6.05000	-188
6.05833	-185
6.06667	-199
6.07500	-219
6.08333	-240
6.09167	-256
6.10000	-258
6.10833	-248
6.11667	-223
6.12500	-191
6.13333	-172
6.14167	-165
6.15000	-160
6.15833	-155
6.16667	-156
6.17500	-171
6.18333	-186
6.19167	-189
6.20000	-186
6.20833	-174
6.21667	-148
6.22500	-130
6.23333	-132
6.24167	-133
6.25000	-133
6.25833	-137
6.26667	-134
6.27500	-129
6.28333	-133
6.29167	-135
6.30000	-123
6.30833	-110
6.31667	-104
6.32500	-96
6.33333	-81
6.34167	-65
6.35000	-55
6.35833	-41
6.36667	-21
6.37500	-13
6.38333	-12
6.39167	-7
6.40000	-0
6.40833	2
6.41667	0
6.42500	-1
6.43333	-3
6.44167	-5
6.45000	-8
6.45833	-20
6.46667	-34
6.47500	-32
6.48333	-17
6.49167	-6
6.50000	8
6.50833	16
6.51667	16
6.52500	24
6.53333	42
6.54167	61
6.55000	74
6.55833	91
6.56667	110
6.57500	118
6.58333	114
6.59167	117
6.60000	118
6.60833	116
6.61667	122
6.62500	137
6.63333	155
6.64167	171
6.65000	178
6.65833	191
6.66667	203
6.67500	194
6.68333	180
6.69167	176
6.70000	180
6.70833	187
6.71667	195
6.72500	200
6.73333	197
6.74167	198
6.75000	205
6.75833	203
6.76667	201
6.77500	207
6.78333	219
6.79167	236
6.80000	256
6.80833	271
6.81667	285
6.82500	296
6.83333	289
6.84167	278
6.85000	282
6.85833	286
6.86667	276
6.87500	273
6.88333	284
6.89167	290
6.90000	284
6.90833	283
6.91667	294
6.92500	302
6.93333	307
6.94167	318
6.95000	320
6.95833	306
6.96667	292
6.97500	279
6.98333	272
6.99167	279
7.00000	285
7.00833	286
7.01667	294
7.02500	307
7.03333	317
7.04167	326
7.05000	344
7.05833	356
7.06667	352
7.07500	355
7.08333	367
7.09167	380
7.10000	396
7.10833	414
7.11667	429
7.12500	444
7.13333	453
7.14167	464
7.15000	493
7.15833	539
7.16667	594
7.17500	655
7.18333	714
7.19167	772
7.20000	847
7.20833	926
7.21667	992
7.22500	1051
7.23333	1113
7.24167	1188
7.25000	1264
7.25833	1336
7.26667	1427
7.27500	1537
7.28333	1650
7.29167	1770
7.30000	1895
7.30833	2017
7.31667	2134
7.32500	2249
7.33333	2368
7.34167	2486
7.35000	2601
7.35833	2712
7.36667	2813
7.37500	2905
7.38333	2987
7.39167	3064
7.40000	3143
7.40833	3211
7.41667	3266
7.42500	3311
7.43333	3347
7.44167	3375
7.45000	3393
7.45833	3398
7.46667	3394
7.47500	3387
7.48333	3367
7.49167	3335
7.50000	3315
7.50833	3319
7.51667	3316
7.52500	3283
7.53333	3233
7.54167	3192
7.55000	3161
7.55833	3113
7.56667	3039
7.57500	2963
7.58333	2898
7.59167	2835
7.60000	2769
7.60833	2703
7.61667	2640
7.62500	2576
7.63333	2506
7.64167	2440
7.65000	2382
7.65833	2312
7.66667	2236
7.67500	2170
7.68333	2106
7.69167	2035
7.70000	1958
7.70833	1879
7.71667	1809
7.72500	1754
7.73333	1704
7.74167	1654
7.75000	1605
7.75833	1557
7.76667	1516
7.77500	1471
7.78333	1418
7.79167	1368
7.80000	1320
7.80833	1280
7.81667	1257
7.82500	1244
7.83333	1211
7.84167	1149
7.85000	1087
7.85833	1038
7.86667	987
7.87500	930
7.88333	882
7.89167	851
7.90000	830
7.90833	822
7.91667	816
7.92500	801
7.93333	776
7.94167	746
7.95000	716
7.95833	694
7.96667	683
7.97500	667
7.98333	640
7.99167	606
8.00000	568
8.00833	529
8.01667	493
8.02500	465
8.03333	455
8.04167	452
8.05000	439
8.05833	426
8.06667	421
8.07500	407
8.08333	380
8.09167	349
8.10000	320
8.10833	305
8.11667	300
8.12500	297
8.13333	299
8.14167	298
8.15000	285
8.15833	268
8.16667	249
8.17500	235
8.18333	226
8.19167	213
8.20000	203
8.20833	208
8.21667	216
8.22500	204
8.23333	182
8.24167	174
8.25000	180
8.25833	188
8.26667	192
8.27500	185
8.28333	165
8.29167	130
8.30000	102
8.30833	104
8.31667	121
8.32500	125
8.33333	113
8.34167	100
8.35000	97
8.35833	96
8.36667	79
8.37500	53
8.38333	33
8.39167	11
8.40000	-2
8.40833	-0
8.41667	2
8.42500	12
8.43333	32
8.44167	44
8.45000	50
8.45833	61
8.46667	77
8.47500	86
8.48333	89
8.49167	96
8.50000	114
8.50833	151
8.51667	191
8.52500	217
8.53333	232
8.54167	234
8.55000	244
8.55833	281
8.56667	335
8.57500	385
8.58333	420
8.59167	448
8.60000	481
8.60833	530
8.61667	589
8.62500	655
8.63333	724
8.64167	793
8.65000	862
8.65833	939
8.66667	1031
8.67500	1121
8.68333	1194
8.69167	1263
8.70000	1336
8.70833	1406
8.71667	1473
8.72500	1555
8.73333	1652
8.74167	1752
8.75000	1848
8.75833	1925
8.76667	1980
8.77500	2037
8.78333	2103
8.79167	2158
8.80000	2193
8.80833	2222
8.81667	2256
8.82500	2284
8.83333	2301
8.84167	2313
8.85000	2322
8.85833	2331
8.86667	2357
8.87500	2393
8.88333	2409
8.89167	2402
8.90000	2381
8.90833	2349
8.91667	2326
8.92500	2321
8.93333	2320
8.94167	2316
8.95000	2299
8.95833	2271
8.96667	2243
8.97500	2211
8.98333	2178
8.99167	2141
9.00000	2097
9.00833	2062
9.01667	2042
9.02500	2023
9.03333	1986
9.04167	1941
9.05000	1897
9.05833	1856
9.06667	1825
9.07500	1806
9.08333	1785
9.09167	1765
9.10000	1750
9.10833	1727
9.11667	1697
9.12500	1665
9.13333	1631
9.14167	1597
9.15000	1565
9.15833	1533
9.16667	1509
9.17500	1491
9.18333	1464
9.19167	1433
9.20000	1406
9.20833	1374
9.21667	1335
9.22500	1299
9.23333	1271
9.24167	1249
9.25000	1223
9.25833	1190
9.26667	1162
9.27500	1150
9.28333	1141
9.29167	1119
9.30000	1097
9.30833	1078
9.31667	1048
9.32500	1012
9.33333	980
9.34167	958
9.35000	947
9.35833	925
9.36667	876
9.37500	834
9.38333	823
9.39167	817
9.40000	786
9.40833	750
9.41667	740
9.42500	739
9.43333	724
9.44167	708
9.45000	703
9.45833	688
9.46667	655
9.47500	607
9.48333	560
9.49167	534
9.50000	530
9.50833	533
9.51667	527
9.52500	511
9.53333	501
9.54167	495
9.55000	483
9.55833	462
9.56667	434
9.57500	409
9.58333	404
9.59167	403
9.60000	375
9.60833	336
9.61667	317
9.62500	318
9.63333	322
9.64167	315
9.65000	302
9.65833	287
9.66667	265
9.67500	238
9.68333	224
9.69167	233
9.70000	251
9.70833	258
9.71667	242
9.72500	216
9.73333	197
9.74167	190
9.75000	182
9.75833	167
9.76667	148
9.77500	137
9.78333	140
9.79167	135
9.80000	123
9.80833	118
9.81667	116
9.82500	102
9.83333	80
9.84167	69
9.85000	66
9.85833	70
9.86667	86
9.87500	98
9.88333	91
9.89167	77
9.90000	62
9.90833	52
9.91667	43
9.92500	28
9.93333	15
9.94167	8
9.95000	12
9.95833	17
9.96667	15
9.97500	17
9.98333	10
9.99167	4
10.00000	17

[LC Status Trace(Pump A Pressure)]
Interval(msec)	1000
# of Points	601
Start Time(min)	0.000
End Time(min)	10.000
Intensity Units	MPa
Intensity Multiplier	0.0980665
R.Time (min)	Intensity
0.00000	28.6
0.01667	28.6
0.03333	29.2
0.05000	29.1
0.06667	29.1
0.08333	29.1
0.10000	29.1
0.11667	29.2
0.13333	29.2
0.15000	29.2
0.16667	29.1
0.18333	29.1
0.20000	29.1
0.21667	29.1
0.23333	29.3
0.25000	29.2
0.26667	29.1
0.28333	29.1
0.30000	29.1
0.31667	29.1
0.33333	29.2
0.35000	29.1
0.36667	29.3
0.38333	29.2
0.40000	29.2
0.41667	29.1
0.43333	29.1
0.45000	29.1
0.46667	29.2
0.48333	29.1
0.50000	29.1
0.51667	29.2
0.53333	29.2
0.55000	29.1
0.56667	29.1
0.58333	29.1
0.60000	29.2
0.61667	29.2
0.63333	29.1
0.65000	29.1
0.66667	29.1
0.68333	29.1
0.70000	29.1
0.71667	29.3
0.73333	29.1
0.75000	29.2
0.76667	29.1
0.78333	29.2
0.80000	29.2
0.81667	29.2
0.83333	29.1
0.85000	29.2
0.86667	29.1
0.88333	29.2
0.90000	29.1
0.91667	29.2
0.93333	29.1
0.95000	29.1
0.96667	29.2
0.98333	29.1
1.00000	29.1
1.01667	29.1
1.03333	28.9
1.05000	28.9
1.06667	28.9
1.08333	29.1
1.10000	29.1
1.11667	29.2
1.13333	29.1
1.15000	29.1
1.16667	29.2
1.18333	29.1
1.20000	29.2
1.21667	28.9
1.23333	29.2
1.25000	29.1
1.26667	29.2
1.28333	28.9
1.30000	28.9
1.31667	29.2
1.33333	29.1
1.35000	29.2
1.36667	29.1
1.38333	29.1
1.40000	29.2
1.41667	29.2
1.43333	29.3
1.45000	29.1
1.46667	29.3
1.48333	29.1
1.50000	29.2
1.51667	29.3
1.53333	29.2
1.55000	29.1
1.56667	29.3
1.58333	29.2
1.60000	29.1
1.61667	29.2
1.63333	29.2
1.65000	29.1
1.66667	29.3
1.68333	29.1
1.70000	29.2
1.71667	29.2
1.73333	29.2
1.75000	29.1
1.76667	29.2
1.78333	29.2
1.80000	29.2
1.81667	29.2
1.83333	29.1
1.85000	29.1
1.86667	29.1
1.88333	29.1
1.90000	28.9
1.91667	29.1
1.93333	29.1
1.95000	29.2
1.96667	29.1
1.98333	29.1
2.00000	29.1
2.01667	29.2
2.03333	29.1
2.05000	29.1
2.06667	29.2
2.08333	29.2
2.10000	29.2
2.11667	29.2
2.13333	29.3
2.15000	29.1
2.16667	29.1
2.18333	29.3
2.20000	29.3
2.21667	29.1
2.23333	29.2
2.25000	29.2
2.26667	29.2
2.28333	29.1
2.30000	29.2
2.31667	28.9
2.33333	29.2
2.35000	29.1
2.36667	29.2
2.38333	29.2
2.40000	29.1
2.41667	29.2
2.43333	29.1
2.45000	29.2
2.46667	29.3
2.48333	29.1
2.50000	29.2
2.51667	29.1
2.53333	29.1
2.55000	29.1
2.56667	29.2
2.58333	29.1
2.60000	29.3
2.61667	29.2
2.63333	29.1
2.65000	29.2
2.66667	29.1
2.68333	29.1
2.70000	29.2
2.71667	29.2
2.73333	28.9
2.75000	29.1
2.76667	29.2
2.78333	29.1
2.80000	29.3
2.81667	29.2
2.83333	29.1
2.85000	29.2
2.86667	29.1
2.88333	28.9
2.90000	29.1
2.91667	29.1
2.93333	29.2
2.95000	29.1
2.96667	29.2
2.98333	29.1
3.00000	29.1
3.01667	29.2
3.03333	29.1
3.05000	28.9
3.06667	28.9
3.08333	29.1
3.10000	29.1
3.11667	29.1
3.13333	29.1
3.15000	29.2
3.16667	29.2
3.18333	29.3
3.20000	28.9
3.21667	29.1
3.23333	29.1
3.25000	29.2
3.26667	29.1
3.28333	29.1
3.30000	29.1
3.31667	29.1
3.33333	29.1
3.35000	29.1
3.36667	29.2
3.38333	29.1
3.40000	29.2
3.41667	29.1
3.43333	29.1
3.45000	29.2
3.46667	29.1
3.48333	29.2
3.50000	29.1
3.51667	29.1
3.53333	28.9
3.55000	29.2
3.56667	29.1
3.58333	29.2
3.60000	29.2
3.61667	29.2
3.63333	29.1
3.65000	29.1
3.66667	29.1
3.68333	29.1
3.70000	29.2
3.71667	29.1
3.73333	29.1
3.75000	29.3
3.76667	29.2
3.78333	29.2
3.80000	28.9
3.81667	29.2
3.83333	29.2
3.85000	29.2
3.86667	29.2
3.88333	29.1
3.90000	29.2
3.91667	29.2
3.93333	29.1
3.95000	29.1
3.96667	29.1
3.98333	29.1
4.00000	29.1
4.01667	29.1
4.03333	29.1
4.05000	29.2
4.06667	28.9
4.08333	29.1
4.10000	29.2
4.11667	29.1
4.13333	29.3
4.15000	28.9
4.16667	29.1
4.18333	29.1
4.20000	29.1
4.21667	29.2
4.23333	29.1
4.25000	29.1
4.26667	29.3
4.28333	29.2
4.30000	29.1
4.31667	29.2
4.33333	29.3
4.35000	29.1
4.36667	29.1
4.38333	29.1
4.40000	28.9
4.41667	29.1
4.43333	29.1
4.45000	28.9
4.46667	29.1
4.48333	29.3
4.50000	29.1
4.51667	28.9
4.53333	29.1
4.55000	29.1
4.56667	29.2
4.58333	29.1
4.60000	29.1
4.61667	28.9
4.63333	29.1
4.65000	29.1
4.66667	29.2
4.68333	29.2
4.70000	29.2
4.71667	29.1
4.73333	29.2
4.75000	29.1
4.76667	29.1
4.78333	29.1
4.80000	29.2
4.81667	28.9
4.83333	29.2
4.85000	29.2
4.86667	29.1
4.88333	29.2
4.90000	29.2
4.91667	28.9
4.93333	29.1
4.95000	29.1
4.96667	28.9
4.98333	29.1
5.00000	29.2
5.01667	29.1
5.03333	29.2
5.05000	29.2
5.06667	29.2
5.08333	28.9
5.10000	29.1
5.11667	29.1
5.13333	28.9
5.15000	29.2
5.16667	29.1
5.18333	29.2
5.20000	29.1
5.21667	29.2
5.23333	29.2
5.25000	29.1
5.26667	28.9
5.28333	28.9
5.30000	29.2
5.31667	29.1
5.33333	29.2
5.35000	29.1
5.36667	29.2
5.38333	29.1
5.40000	29.2
5.41667	29.1
5.43333	29.1
5.45000	29.2
5.46667	29.2
5.48333	29.1
5.50000	29.1
5.51667	29.1
5.53333	29.1
5.55000	29.1
5.56667	29.1
5.58333	28.9
5.60000	29.1
5.61667	28.9
5.63333	29.1
5.65000	28.9
5.66667	29.3
5.68333	29.2
5.70000	29.3
5.71667	28.9
5.73333	29.1
5.75000	29.2
5.76667	29.1
5.78333	29.1
5.80000	29.2
5.81667	29.2
5.83333	29.1
5.85000	29.1
5.86667	29.1
5.88333	29.2
5.90000	29.2
5.91667	29.2
5.93333	29.1
5.95000	29.3
5.96667	29.2
5.98333	29.1
6.00000	29.1
6.01667	29.2
6.03333	29.1
6.05000	29.1
6.06667	29.1
6.08333	29.1
6.10000	29.1
6.11667	28.9
6.13333	29.2
6.15000	29.2
6.16667	29.2
6.18333	29.1
6.20000	29.2
6.21667	29.1
6.23333	29.1
6.25000	28.9
6.26667	29.2
6.28333	29.1
6.30000	29.2
6.31667	29.1
6.33333	29.1
6.35000	29.1
6.36667	29.1
6.38333	29.5
6.40000	29.2
6.41667	29.2
6.43333	29.2
6.45000	28.9
6.46667	29.1
6.48333	29.1
6.50000	28.9
6.51667	29.1
6.53333	29.1
6.55000	29.1
6.56667	29.2
6.58333	29.1
6.60000	29.1
6.61667	29.1
6.63333	29.2
6.65000	29.1
6.66667	29.1
6.68333	29.1
6.70000	29.1
6.71667	29.2
6.73333	28.9
6.75000	29.1
6.76667	29.2
6.78333	29.1
6.80000	29.1
6.81667	29.1
6.83333	29.2
6.85000	29.1
6.86667	29.1
6.88333	29.2
6.90000	29.1
6.91667	29.1
6.93333	29.3
6.95000	29.2
6.96667	28.9
6.98333	29.2
7.00000	29.2
7.01667	29.1
7.03333	29.2
7.05000	29.1
7.06667	29.2
7.08333	29.1
7.10000	29.2
7.11667	29.3
7.13333	29.1
7.15000	29.2
7.16667	29.3
7.18333	28.9
7.20000	29.2
7.21667	28.9
7.23333	29.1
7.25000	28.9
7.26667	29.1
7.28333	29.2
7.30000	28.9
7.31667	29.2
7.33333	29.1
7.35000	29.1
7.36667	29.2
7.38333	28.8
7.40000	29.1
7.41667	29.2
7.43333	28.9
7.45000	29.2
7.46667	29.2
7.48333	28.9
7.50000	29.1
7.51667	29.1
7.53333	29.1
7.55000	29.1
7.56667	29.1
7.58333	28.9
7.60000	29.1
7.61667	29.1
7.63333	29.1
7.65000	28.9
7.66667	29.2
7.68333	29.1
7.70000	28.9
7.71667	29.1
7.73333	29.1
7.75000	29.1
7.76667	29.1
7.78333	29.3
7.80000	29.1
7.81667	28.8
7.83333	29.2
7.85000	29.1
7.86667	29.1
7.88333	29.3
7.90000	29.2
7.91667	29.1
7.93333	29.2
7.95000	29.1
7.96667	29.1
7.98333	29.2
8.00000	29.2
8.01667	29.3
8.03333	29.1
8.05000	29.1
8.06667	28.9
8.08333	29.2
8.10000	29.2
8.11667	29.1
8.13333	29.1
8.15000	29.1
8.16667	29.1
8.18333	29.1
8.20000	29.2
8.21667	28.9
8.23333	29.2
8.25000	29.1
8.26667	28.9
8.28333	28.9
8.30000	29.1
8.31667	28.9
8.33333	29.2
8.35000	29.1
8.36667	29.1
8.38333	29.1
8.40000	29.1
8.41667	28.9
8.43333	29.1
8.45000	29.1
8.46667	29.2
8.48333	29.1
8.50000	29.1
8.51667	29.2
8.53333	29.2
8.55000	29.1
8.56667	29.1
8.58333	28.9
8.60000	29.1
8.61667	29.1
8.63333	28.9
8.65000	29.1
8.66667	29.1
8.68333	29.1
8.70000	29.2
8.71667	29.1
8.73333	29.1
8.75000	29.1
8.76667	28.9
8.78333	28.9
8.80000	29.1
8.81667	28.8
8.83333	29.1
8.85000	29.1
8.86667	29.2
8.88333	29.1
8.90000	29.1
8.91667	29.1
8.93333	29.2
8.95000	29.1
8.96667	29.1
8.98333	29.2
9.00000	29.2
9.01667	29.2
9.03333	29.1
9.05000	29.2
9.06667	29.2
9.08333	29.1
9.10000	28.9
9.11667	29.2
9.13333	29.1
9.15000	29.1
9.16667	29.2
9.18333	29.2
9.20000	29.2
9.21667	29.1
9.23333	29.3
9.25000	29.2
9.26667	29.1
9.28333	28.9
9.30000	29.2
9.31667	29.2
9.33333	29.3
9.35000	29.1
9.36667	29.2
9.38333	28.9
9.40000	29.1
9.41667	29.1
9.43333	29.2
9.45000	29.2
9.46667	29.2
9.48333	29.1
9.50000	29.2
9.51667	28.9
9.53333	29.2
9.55000	29.2
9.56667	29.1
9.58333	29.1
9.60000	29.2
9.61667	29.1
9.63333	28.9
9.65000	29.2
9.66667	29.3
9.68333	28.9
9.70000	29.2
9.71667	29.1
9.73333	29.1
9.75000	29.1
9.76667	29.2
9.78333	29.1
9.80000	29.2
9.81667	29.2
9.83333	29.2
9.85000	29.1
9.86667	29.2
9.88333	28.9
9.90000	28.9
9.91667	29.1
9.93333	29.2
9.95000	29.2
9.96667	28.9
9.98333	29.1
10.00000	29.1

[LC Status Trace(Pump A Degasser Pressure)]
Interval(msec)	1000
# of Points	601
Start Time(min)	0.000
End Time(min)	10.000
Intensity Units	MPa
Intensity Multiplier	0.0980665
R.Time (min)	Intensity
0.00000	964.6
0.01667	964.6
0.03333	964.6
0.05000	964.6
0.06667	964.6
0.08333	964.6
0.10000	964.6
0.11667	964.6
0.13333	964.6
0.15000	964.6
0.16667	964.6
0.18333	964.6
0.20000	964.6
0.21667	964.6
0.23333	964.6
0.25000	964.6
0.26667	964.6
0.28333	964.6
0.30000	964.6
0.31667	964.6
0.33333	964.6
0.35000	964.6
0.36667	964.6
0.38333	964.6
0.40000	964.6
0.41667	964.6
0.43333	964.6
0.45000	964.6
0.46667	964.6
0.48333	964.6
0.50000	964.6
0.51667	964.6
0.53333	964.6
0.55000	964.6
0.56667	964.6
0.58333	964.6
0.60000	964.6
0.61667	964.6
0.63333	964.6
0.65000	964.6
0.66667	964.6
0.68333	964.6
0.70000	964.6
0.71667	964.6
0.73333	964.6
0.75000	964.6
0.76667	964.6
0.78333	964.6
0.80000	964.6
0.81667	964.6
0.83333	964.6
0.85000	964.6
0.86667	964.6
0.88333	964.6
0.90000	964.6
0.91667	964.6
0.93333	964.6
0.95000	964.6
0.96667	964.6
0.98333	964.6
1.00000	964.6
1.01667	964.6
1.03333	964.6
1.05000	964.6
1.06667	964.6
1.08333	964.6
1.10000	964.6
1.11667	964.6
1.13333	964.6
1.15000	964.6
1.16667	964.6
1.18333	964.6
1.20000	964.6
1.21667	963.6
1.23333	963.6
1.25000	963.6
1.26667	963.6
1.28333	963.6
1.30000	963.6
1.31667	963.6
1.33333	963.6
1.35000	963.6
1.36667	963.6
1.38333	963.6
1.40000	963.6
1.41667	963.6
1.43333	963.6
1.45000	963.6
1.46667	963.6
1.48333	963.6
1.50000	963.6
1.51667	963.6
1.53333	963.6
1.55000	963.6
1.56667	963.6
1.58333	963.6
1.60000	963.6
1.61667	963.6
1.63333	963.6
1.65000	963.6
1.66667	963.6
1.68333	963.6
1.70000	963.6
1.71667	963.6
1.73333	963.6
1.75000	963.6
1.76667	963.6
1.78333	963.6
1.80000	963.6
1.81667	963.6
1.83333	963.6
1.85000	963.6
1.86667	963.6
1.88333	963.6
1.90000	963.6
1.91667	963.6
1.93333	963.6
1.95000	963.6
1.96667	963.6
1.98333	963.6
2.00000	964.6
2.01667	964.6
2.03333	964.6
2.05000	964.6
2.06667	964.6
2.08333	964.6
2.10000	964.6
2.11667	964.6
2.13333	964.6
2.15000	964.6
2.16667	964.6
2.18333	964.6
2.20000	964.6
2.21667	964.6
2.23333	964.6
2.25000	964.6
2.26667	964.6
2.28333	964.6
2.30000	964.6
2.31667	964.6
2.33333	964.6
2.35000	964.6
2.36667	964.6
2.38333	964.6
2.40000	964.6
2.41667	964.6
2.43333	964.6
2.45000	964.6
2.46667	964.6
2.48333	964.6
2.50000	964.6
2.51667	964.6
2.53333	964.6
2.55000	964.6
2.56667	964.6
2.58333	964.6
2.60000	964.6
2.61667	964.6
2.63333	964.6
2.65000	964.6
2.66667	964.6
2.68333	964.6
2.70000	964.6
2.71667	964.6
2.73333	964.6
2.75000	964.6
2.76667	964.6
2.78333	964.6
2.80000	964.6
2.81667	964.6
2.83333	964.6
2.85000	964.6
2.86667	964.6
2.88333	964.6
2.90000	964.6
2.91667	964.6
2.93333	964.6
2.95000	964.6
2.96667	964.6
2.98333	964.6
3.00000	964.6
3.01667	964.6
3.03333	964.6
3.05000	964.6
3.06667	964.6
3.08333	964.6
3.10000	964.6
3.11667	964.6
3.13333	964.6
3.15000	964.6
3.16667	964.6
3.18333	964.6
3.20000	964.6
3.21667	964.6
3.23333	964.6
3.25000	964.6
3.26667	964.6
3.28333	964.6
3.30000	964.6
3.31667	964.6
3.33333	964.6
3.35000	964.6
3.36667	964.6
3.38333	964.6
3.40000	964.6
3.41667	964.6
3.43333	964.6
3.45000	964.6
3.46667	964.6
3.48333	964.6
3.50000	964.6
3.51667	964.6
3.53333	964.6
3.55000	964.6
3.56667	964.6
3.58333	964.6
3.60000	964.6
3.61667	964.6
3.63333	964.6
3.65000	964.6
3.66667	964.6
3.68333	964.6
3.70000	964.6
3.71667	964.6
3.73333	964.6
3.75000	964.6
3.76667	964.6
3.78333	964.6
3.80000	964.6
3.81667	964.6
3.83333	964.6
3.85000	964.6
3.86667	964.6
3.88333	964.6
3.90000	964.6
3.91667	964.6
3.93333	964.6
3.95000	964.6
3.96667	964.6
3.98333	964.6
4.00000	964.6
4.01667	964.6
4.03333	964.6
4.05000	964.6
4.06667	964.6
4.08333	964.6
4.10000	964.6
4.11667	964.6
4.13333	964.6
4.15000	964.6
4.16667	964.6
4.18333	964.6
4.20000	964.6
4.21667	964.6
4.23333	964.6
4.25000	964.6
4.26667	964.6
4.28333	964.6
4.30000	964.6
4.31667	964.6
4.33333	964.6
4.35000	964.6
4.36667	964.6
4.38333	964.6
4.40000	964.6
4.41667	964.6
4.43333	964.6
4.45000	964.6
4.46667	964.6
4.48333	964.6
4.50000	964.6
4.51667	964.6
4.53333	964.6
4.55000	964.6
4.56667	964.6
4.58333	964.6
4.60000	964.6
4.61667	963.6
4.63333	963.6
4.65000	963.6
4.66667	963.6
4.68333	963.6
4.70000	963.6
4.71667	963.6
4.73333	963.6
4.75000	963.6
4.76667	963.6
4.78333	963.6
4.80000	963.6
4.81667	963.6
4.83333	963.6
4.85000	963.6
4.86667	963.6
4.88333	963.6
4.90000	963.6
4.91667	963.6
4.93333	963.6
4.95000	963.6
4.96667	963.6
4.98333	963.6
5.00000	963.6
5.01667	963.6
5.03333	963.6
5.05000	963.6
5.06667	963.6
5.08333	963.6
5.10000	963.6
5.11667	963.6
5.13333	963.6
5.15000	963.6
5.16667	963.6
5.18333	963.6
5.20000	963.6
5.21667	963.6
5.23333	963.6
5.25000	963.6
5.26667	963.6
5.28333	963.6
5.30000	963.6
5.31667	963.6
5.33333	963.6
5.35000	963.6
5.36667	963.6
5.38333	963.6
5.40000	963.6
5.41667	963.6
5.43333	963.6
5.45000	963.6
5.46667	963.6
5.48333	963.6
5.50000	964.6
5.51667	964.6
5.53333	964.6
5.55000	964.6
5.56667	964.6
5.58333	964.6
5.60000	964.6
5.61667	964.6
5.63333	964.6
5.65000	964.6
5.66667	964.6
5.68333	964.6
5.70000	964.6
5.71667	964.6
5.73333	964.6
5.75000	964.6
5.76667	964.6
5.78333	964.6
5.80000	964.6
5.81667	964.6
5.83333	964.6
5.85000	964.6
5.86667	964.6
5.88333	964.6
5.90000	964.6
5.91667	964.6
5.93333	964.6
5.95000	964.6
5.96667	964.6
5.98333	964.6
6.00000	964.6
6.01667	964.6
6.03333	964.6
6.05000	964.6
6.06667	964.6
6.08333	964.6
6.10000	964.6
6.11667	964.6
6.13333	964.6
6.15000	964.6
6.16667	964.6
6.18333	964.6
6.20000	964.6
6.21667	964.6
6.23333	964.6
6.25000	964.6
6.26667	964.6
6.28333	964.6
6.30000	964.6
6.31667	964.6
6.33333	964.6
6.35000	964.6
6.36667	964.6
6.38333	964.6
6.40000	964.6
6.41667	964.6
6.43333	964.6
6.45000	964.6
6.46667	964.6
6.48333	964.6
6.50000	964.6
6.51667	964.6
6.53333	964.6
6.55000	964.6
6.56667	964.6
6.58333	964.6
6.60000	964.6
6.61667	964.6
6.63333	964.6
6.65000	964.6
6.66667	964.6
6.68333	964.6
6.70000	964.6
6.71667	964.6
6.73333	964.6
6.75000	964.6
6.76667	964.6
6.78333	964.6
6.80000	964.6
6.81667	964.6
6.83333	964.6
6.85000	964.6
6.86667	964.6
6.88333	964.6
6.90000	964.6
6.91667	964.6
6.93333	964.6
6.95000	964.6
6.96667	964.6
6.98333	964.6
7.00000	964.6
7.01667	964.6
7.03333	964.6
7.05000	964.6
7.06667	964.6
7.08333	964.6
7.10000	964.6
7.11667	964.6
7.13333	964.6
7.15000	964.6
7.16667	964.6
7.18333	964.6
7.20000	964.6
7.21667	964.6
7.23333	964.6
7.25000	964.6
7.26667	964.6
7.28333	964.6
7.30000	964.6
7.31667	964.6
7.33333	964.6
7.35000	964.6
7.36667	964.6
7.38333	964.6
7.40000	964.6
7.41667	964.6
7.43333	964.6
7.45000	964.6
7.46667	964.6
7.48333	964.6
7.50000	964.6
7.51667	964.6
7.53333	964.6
7.55000	964.6
7.56667	964.6
7.58333	964.6
7.60000	964.6
7.61667	964.6
7.63333	964.6
7.65000	964.6
7.66667	964.6
7.68333	964.6
7.70000	964.6
7.71667	964.6
7.73333	964.6
7.75000	964.6
7.76667	964.6
7.78333	964.6
7.80000	964.6
7.81667	964.6
7.83333	964.6
7.85000	964.6
7.86667	964.6
7.88333	964.6
7.90000	964.6
7.91667	964.6
7.93333	964.6
7.95000	964.6
7.96667	964.6
7.98333	964.6
8.00000	964.6
8.01667	964.6
8.03333	964.6
8.05000	964.6
8.06667	964.6
8.08333	964.6
8.10000	964.6
8.11667	964.6
8.13333	964.6
8.15000	964.6
8.16667	964.6
8.18333	964.6
8.20000	964.6
8.21667	964.6
8.23333	964.6
8.25000	964.6
8.26667	964.6
8.28333	964.6
8.30000	964.6
8.31667	964.6
8.33333	964.6
8.35000	964.6
8.36667	964.6
8.38333	964.6
8.40000	964.6
8.41667	964.6
8.43333	964.6
8.45000	964.6
8.46667	964.6
8.48333	964.6
8.50000	964.6
8.51667	964.6
8.53333	964.6
8.55000	964.6
8.56667	964.6
8.58333	964.6
8.60000	964.6
8.61667	964.6
8.63333	964.6
8.65000	964.6
8.66667	964.6
8.68333	964.6
8.70000	964.6
8.71667	964.6
8.73333	964.6
8.75000	964.6
8.76667	964.6
8.78333	964.6
8.80000	964.6
8.81667	964.6
8.83333	964.6
8.85000	964.6
8.86667	964.6
8.88333	964.6
8.90000	964.6
8.91667	964.6
8.93333	964.6
8.95000	964.6
8.96667	964.6
8.98333	964.6
9.00000	964.6
9.01667	964.6
9.03333	964.6
9.05000	964.6
9.06667	964.6
9.08333	964.6
9.10000	964.6
9.11667	964.6
9.13333	964.6
9.15000	964.6
9.16667	964.6
9.18333	964.6
9.20000	964.6
9.21667	964.6
9.23333	964.6
9.25000	964.6
9.26667	964.6
9.28333	964.6
9.30000	964.6
9.31667	964.6
9.33333	964.6
9.35000	964.6
9.36667	964.6
9.38333	964.6
9.40000	964.6
9.41667	964.6
9.43333	964.6
9.45000	964.6
9.46667	964.6
9.48333	964.6
9.50000	964.6
9.51667	964.6
9.53333	964.6
9.55000	964.6
9.56667	964.6
9.58333	964.6
9.60000	964.6
9.61667	964.6
9.63333	964.6
9.65000	964.6
9.66667	964.6
9.68333	964.6
9.70000	964.6
9.71667	964.6
9.73333	964.6
9.75000	963.6
9.76667	963.6
9.78333	963.6
9.80000	963.6
9.81667	963.6
9.83333	963.6
9.85000	963.6
9.86667	963.6
9.88333	963.6
9.90000	963.6
9.91667	963.6
9.93333	963.6
9.95000	963.6
9.96667	963.6
9.98333	963.6
10.00000	963.6

[LC Status Trace(Sample Cooler Temp.)]
Interval(msec)	1000
# of Points	601
Start Time(min)	0.000
End Time(min)	10.000
Intensity Units	C
Intensity Multiplier	1
R.Time (min)	Intensity
0.00000	4.0
0.01667	4.0
0.03333	4.0
0.05000	4.0
0.06667	4.0
0.08333	4.0
0.10000	4.0
0.11667	4.0
0.13333	4.0
0.15000	4.0
0.16667	4.0
0.18333	4.0
0.20000	4.0
0.21667	4.0
0.23333	4.0
0.25000	4.0
0.26667	4.0
0.28333	4.0
0.30000	4.0
0.31667	4.0
0.33333	4.0
0.35000	4.0
0.36667	4.0
0.38333	4.0
0.40000	4.0
0.41667	4.0
0.43333	4.0
0.45000	4.0
0.46667	4.0
0.48333	4.0
0.50000	4.0
0.51667	4.0
0.53333	4.0
0.55000	4.0
0.56667	4.0
0.58333	4.0
0.60000	4.0
0.61667	4.0
0.63333	4.0
0.65000	4.0
0.66667	4.0
0.68333	4.0
0.70000	4.0
0.71667	4.0
0.73333	4.0
0.75000	4.0
0.76667	4.0
0.78333	4.0
0.80000	4.0
0.81667	4.0
0.83333	4.0
0.85000	4.0
0.86667	4.0
0.88333	4.0
0.90000	4.0
0.91667	4.0
0.93333	4.0
0.95000	4.0
0.96667	4.0
0.98333	4.0
1.00000	4.0
1.01667	4.0
1.03333	4.0
1.05000	4.0
1.06667	4.0
1.08333	4.0
1.10000	4.0
1.11667	4.0
1.13333	4.0
1.15000	4.0
1.16667	4.0
1.18333	4.0
1.20000	4.0
1.21667	4.0
1.23333	4.0
1.25000	4.0
1.26667	4.0
1.28333	4.0
1.30000	4.0
1.31667	4.0
1.33333	4.0
1.35000	4.0
1.36667	4.0
1.38333	4.0
1.40000	4.0
1.41667	4.0
1.43333	4.0
1.45000	4.0
1.46667	4.0
1.48333	4.0
1.50000	4.0
1.51667	4.0
1.53333	4.0
1.55000	4.0
1.56667	4.0
1.58333	4.0
1.60000	4.0
1.61667	4.0
1.63333	4.0
1.65000	4.0
1.66667	4.0
1.68333	4.0
1.70000	4.0
1.71667	4.0
1.73333	4.0
1.75000	4.0
1.76667	4.0
1.78333	4.0
1.80000	4.0
1.81667	4.0
1.83333	4.0
1.85000	4.0
1.86667	4.0
1.88333	4.0
1.90000	4.0
1.91667	4.0
1.93333	4.0
1.95000	4.0
1.96667	4.0
1.98333	4.0
2.00000	4.0
2.01667	4.0
2.03333	4.0
2.05000	4.0
2.06667	4.0
2.08333	4.0
2.10000	4.0
2.11667	4.0
2.13333	4.0
2.15000	4.0
2.16667	4.0
2.18333	4.0
2.20000	4.0
2.21667	4.0
2.23333	4.0
2.25000	4.0
2.26667	4.0
2.28333	4.0
2.30000	4.0
2.31667	4.0
2.33333	4.0
2.35000	4.0
2.36667	4.0
2.38333	4.0
2.40000	4.0
2.41667	4.0
2.43333	4.0
2.45000	4.0
2.46667	4.0
2.48333	4.0
2.50000	4.0
2.51667	4.0
2.53333	4.0
2.55000	4.0
2.56667	4.0
2.58333	4.0
2.60000	4.0
2.61667	4.0
2.63333	4.0
2.65000	4.0
2.66667	4.0
2.68333	4.0
2.70000	4.0
2.71667	4.0
2.73333	4.0
2.75000	4.0
2.76667	4.0
2.78333	4.0
2.80000	4.0
2.81667	4.0
2.83333	4.0
2.85000	4.0
2.86667	4.0
2.88333	4.0
2.90000	4.0
2.91667	4.0
2.93333	4.0
2.95000	4.0
2.96667	4.0
2.98333	4.0
3.00000	4.0
3.01667	4.0
3.03333	4.0
3.05000	4.0
3.06667	4.0
3.08333	4.0
3.10000	4.0
3.11667	4.0
3.13333	4.0
3.15000	4.0
3.16667	4.0
3.18333	4.0
3.20000	4.0
3.21667	4.0
3.23333	4.0
3.25000	4.0
3.26667	4.0
3.28333	4.0
3.30000	4.0
3.31667	4.0
3.33333	4.0
3.35000	4.0
3.36667	4.0
3.38333	4.0
3.40000	4.0
3.41667	4.0
3.43333	4.0
3.45000	4.0
3.46667	4.0
3.48333	4.0
3.50000	4.0
3.51667	4.0
3.53333	4.0
3.55000	4.0
3.56667	4.0
3.58333	4.0
3.60000	4.0
3.61667	4.0
3.63333	4.0
3.65000	4.0
3.66667	4.0
3.68333	4.0
3.70000	4.0
3.71667	4.0
3.73333	4.0
3.75000	4.0
3.76667	4.0
3.78333	4.0
3.80000	4.0
3.81667	4.0
3.83333	4.0
3.85000	4.0
3.86667	4.0
3.88333	4.0
3.90000	4.0
3.91667	4.0
3.93333	4.0
3.95000	4.0
3.96667	4.0
3.98333	4.0
4.00000	4.0
4.01667	4.0
4.03333	4.0
4.05000	4.0
4.06667	4.0
4.08333	4.0
4.10000	4.0
4.11667	4.0
4.13333	4.0
4.15000	4.0
4.16667	4.0
4.18333	4.0
4.20000	4.0
4.21667	4.0
4.23333	4.0
4.25000	4.0
4.26667	4.0
4.28333	4.0
4.30000	4.0
4.31667	4.0
4.33333	4.0
4.35000	4.0
4.36667	4.0
4.38333	4.0
4.40000	4.0
4.41667	4.0
4.43333	4.0
4.45000	4.0
4.46667	4.0
4.48333	4.0
4.50000	4.0
4.51667	4.0
4.53333	4.0
4.55000	4.0
4.56667	4.0
4.58333	4.0
4.60000	4.0
4.61667	4.0
4.63333	4.0
4.65000	4.0
4.66667	4.0
4.68333	4.0
4.70000	4.0
4.71667	4.0
4.73333	4.0
4.75000	4.0
4.76667	4.0
4.78333	4.0
4.80000	4.0
4.81667	4.0
4.83333	4.0
4.85000	4.0
4.86667	4.0
4.88333	4.0
4.90000	4.0
4.91667	4.0
4.93333	4.0
4.95000	4.0
4.96667	4.0
4.98333	4.0
5.00000	4.0
5.01667	4.0
5.03333	4.0
5.05000	4.0
5.06667	4.0
5.08333	4.0
5.10000	4.0
5.11667	4.0
5.13333	4.0
5.15000	4.0
5.16667	4.0
5.18333	4.0
5.20000	4.0
5.21667	4.0
5.23333	4.0
5.25000	4.0
5.26667	4.0
5.28333	4.0
5.30000	4.0
5.31667	4.0
5.33333	4.0
5.35000	4.0
5.36667	4.0
5.38333	4.0
5.40000	4.0
5.41667	4.0
5.43333	4.0
5.45000	4.0
5.46667	4.0
5.48333	4.0
5.50000	4.0
5.51667	4.0
5.53333	4.0
5.55000	4.0
5.56667	4.0
5.58333	4.0
5.60000	4.0
5.61667	4.0
5.63333	4.0
5.65000	4.0
5.66667	4.0
5.68333	4.0
5.70000	4.0
5.71667	4.0
5.73333	4.0
5.75000	4.0
5.76667	4.0
5.78333	4.0
5.80000	4.0
5.81667	4.0
5.83333	4.0
5.85000	4.0
5.86667	4.0
5.88333	4.0
5.90000	4.0
5.91667	4.0
5.93333	4.0
5.95000	4.0
5.96667	4.0
5.98333	4.0
6.00000	4.0
6.01667	4.0
6.03333	4.0
6.05000	4.0
6.06667	4.0
6.08333	4.0
6.10000	4.0
6.11667	4.0
6.13333	4.0
6.15000	4.0
6.16667	4.0
6.18333	4.0
6.20000	4.0
6.21667	4.0
6.23333	4.0
6.25000	4.0
6.26667	4.0
6.28333	4.0
6.30000	4.0
6.31667	4.0
6.33333	4.0
6.35000	4.0
6.36667	4.0
6.38333	4.0
6.40000	4.0
6.41667	4.0
6.43333	4.0
6.45000	4.0
6.46667	4.0
6.48333	4.0
6.50000	4.0
6.51667	4.0
6.53333	4.0
6.55000	4.0
6.56667	4.0
6.58333	4.0
6.60000	4.0
6.61667	4.0
6.63333	4.0
6.65000	4.0
6.66667	4.0
6.68333	4.0
6.70000	4.0
6.71667	4.0
6.73333	4.0
6.75000	4.0
6.76667	4.0
6.78333	4.0
6.80000	4.0
6.81667	4.0
6.83333	4.0
6.85000	4.0
6.86667	4.0
6.88333	4.0
6.90000	4.0
6.91667	4.0
6.93333	4.0
6.95000	4.0
6.96667	4.0
6.98333	4.0
7.00000	4.0
7.01667	4.0
7.03333	4.0
7.05000	4.0
7.06667	4.0
7.08333	4.0
7.10000	4.0
7.11667	4.0
7.13333	4.0
7.15000	4.0
7.16667	4.0
7.18333	4.0
7.20000	4.0
7.21667	4.0
7.23333	4.0
7.25000	4.0
7.26667	4.0
7.28333	4.0
7.30000	4.0
7.31667	4.0
7.33333	4.0
7.35000	4.0
7.36667	4.0
7.38333	4.0
7.40000	4.0
7.41667	4.0
7.43333	4.0
7.45000	4.0
7.46667	4.0
7.48333	4.0
7.50000	4.0
7.51667	4.0
7.53333	4.0
7.55000	4.0
7.56667	4.0
7.58333	4.0
7.60000	4.0
7.61667	4.0
7.63333	4.0
7.65000	4.0
7.66667	4.0
7.68333	4.0
7.70000	4.0
7.71667	4.0
7.73333	4.0
7.75000	4.0
7.76667	4.0
7.78333	4.0
7.80000	4.0
7.81667	4.0
7.83333	4.0
7.85000	4.0
7.86667	4.0
7.88333	4.0
7.90000	4.0
7.91667	4.0
7.93333	4.0
7.95000	4.0
7.96667	4.0
7.98333	4.0
8.00000	4.0
8.01667	4.0
8.03333	4.0
8.05000	4.0
8.06667	4.0
8.08333	4.0
8.10000	4.0
8.11667	4.0
8.13333	4.0
8.15000	4.0
8.16667	4.0
8.18333	4.0
8.20000	4.0
8.21667	4.0
8.23333	4.0
8.25000	4.0
8.26667	4.0
8.28333	4.0
8.30000	4.0
8.31667	4.0
8.33333	4.0
8.35000	4.0
8.36667	4.0
8.38333	4.0
8.40000	4.0
8.41667	4.0
8.43333	4.0
8.45000	4.0
8.46667	4.0
8.48333	4.0
8.50000	4.0
8.51667	4.0
8.53333	4.0
8.55000	4.0
8.56667	4.0
8.58333	4.0
8.60000	4.0
8.61667	4.0
8.63333	4.0
8.65000	4.0
8.66667	4.0
8.68333	4.0
8.70000	4.0
8.71667	4.0
8.73333	4.0
8.75000	4.0
8.76667	4.0
8.78333	4.0
8.80000	4.0
8.81667	4.0
8.83333	4.0
8.85000	4.0
8.86667	4.0
8.88333	4.0
8.90000	4.0
8.91667	4.0
8.93333	4.0
8.95000	4.0
8.96667	4.0
8.98333	4.0
9.00000	4.0
9.01667	4.0
9.03333	4.0
9.05000	4.0
9.06667	4.0
9.08333	4.0
9.10000	4.0
9.11667	4.0
9.13333	4.0
9.15000	4.0
9.16667	4.0
9.18333	4.0
9.20000	4.0
9.21667	4.0
9.23333	4.0
9.25000	4.0
9.26667	4.0
9.28333	4.0
9.30000	4.0
9.31667	4.0
9.33333	4.0
9.35000	4.0
9.36667	4.0
9.38333	4.0
9.40000	4.0
9.41667	4.0
9.43333	4.0
9.45000	4.0
9.46667	4.0
9.48333	4.0
9.50000	4.0
9.51667	4.0
9.53333	4.0
9.55000	4.0
9.56667	4.0
9.58333	4.0
9.60000	4.0
9.61667	4.0
9.63333	4.0
9.65000	4.0
9.66667	4.0
9.68333	4.0
9.70000	4.0
9.71667	4.0
9.73333	4.0
9.75000	4.0
9.76667	4.0
9.78333	4.0
9.80000	4.0
9.81667	4.0
9.83333	4.0
9.85000	4.0
9.86667	4.0
9.88333	4.0
9.90000	4.0
9.91667	4.0
9.93333	4.0
9.95000	4.0
9.96667	4.0
9.98333	4.0
10.00000	4.0

[LC Status Trace(RF A Cell Temp.)]
Interval(msec)	1000
# of Points	601
Start Time(min)	0.000
End Time(min)	10.000
Intensity Units	C
Intensity Multiplier	1
R.Time (min)	Intensity
0.00000	30.05
0.01667	30.05
0.03333	30.05
0.05000	30.06
0.06667	30.06
0.08333	30.06
0.10000	30.06
0.11667	30.06
0.13333	30.06
0.15000	30.06
0.16667	30.06
0.18333	30.06
0.20000	30.06
0.21667	30.06
0.23333	30.06
0.25000	30.06
0.26667	30.06
0.28333	30.06
0.30000	30.06
0.31667	30.06
0.33333	30.06
0.35000	30.06
0.36667	30.06
0.38333	30.06
0.40000	30.06
0.41667	30.06
0.43333	30.06
0.45000	30.06
0.46667	30.06
0.48333	30.06
0.50000	30.06
0.51667	30.06
0.53333	30.05
0.55000	30.05
0.56667	30.06
0.58333	30.05
0.60000	30.05
0.61667	30.05
0.63333	30.05
0.65000	30.05
0.66667	30.05
0.68333	30.06
0.70000	30.06
0.71667	30.06
0.73333	30.06
0.75000	30.06
0.76667	30.05
0.78333	30.06
0.80000	30.06
0.81667	30.06
0.83333	30.06
0.85000	30.06
0.86667	30.06
0.88333	30.06
0.90000	30.06
0.91667	30.06
0.93333	30.06
0.95000	30.06
0.96667	30.05
0.98333	30.05
1.00000	30.06
1.01667	30.06
1.03333	30.06
1.05000	30.05
1.06667	30.06
1.08333	30.06
1.10000	30.05
1.11667	30.05
1.13333	30.05
1.15000	30.06
1.16667	30.06
1.18333	30.06
1.20000	30.06
1.21667	30.06
1.23333	30.06
1.25000	30.06
1.26667	30.06
1.28333	30.06
1.30000	30.06
1.31667	30.06
1.33333	30.06
1.35000	30.05
1.36667	30.06
1.38333	30.06
1.40000	30.06
1.41667	30.05
1.43333	30.06
1.45000	30.05
1.46667	30.05
1.48333	30.06
1.50000	30.06
1.51667	30.06
1.53333	30.06
1.55000	30.06
1.56667	30.06
1.58333	30.06
1.60000	30.06
1.61667	30.06
1.63333	30.06
1.65000	30.06
1.66667	30.06
1.68333	30.06
1.70000	30.06
1.71667	30.06
1.73333	30.06
1.75000	30.06
1.76667	30.06
1.78333	30.06
1.80000	30.06
1.81667	30.06
1.83333	30.05
1.85000	30.06
1.86667	30.06
1.88333	30.05
1.90000	30.05
1.91667	30.05
1.93333	30.05
1.95000	30.05
1.96667	30.05
1.98333	30.05
2.00000	30.05
2.01667	30.05
2.03333	30.05
2.05000	30.05
2.06667	30.05
2.08333	30.05
2.10000	30.05
2.11667	30.05
2.13333	30.05
2.15000	30.05
2.16667	30.05
2.18333	30.05
2.20000	30.05
2.21667	30.05
2.23333	30.05
2.25000	30.06
2.26667	30.06
2.28333	30.06
2.30000	30.06
2.31667	30.06
2.33333	30.06
2.35000	30.06
2.36667	30.05
2.38333	30.05
2.40000	30.05
2.41667	30.05
2.43333	30.06
2.45000	30.06
2.46667	30.05
2.48333	30.05
2.50000	30.05
2.51667	30.05
2.53333	30.06
2.55000	30.06
2.56667	30.06
2.58333	30.05
2.60000	30.06
2.61667	30.06
2.63333	30.06
2.65000	30.06
2.66667	30.06
2.68333	30.06
2.70000	30.06
2.71667	30.06
2.73333	30.06
2.75000	30.06
2.76667	30.06
2.78333	30.06
2.80000	30.06
2.81667	30.06
2.83333	30.06
2.85000	30.06
2.86667	30.06
2.88333	30.06
2.90000	30.06
2.91667	30.06
2.93333	30.06
2.95000	30.06
2.96667	30.06
2.98333	30.06
3.00000	30.06
3.01667	30.05
3.03333	30.05
3.05000	30.05
3.06667	30.05
3.08333	30.05
3.10000	30.05
3.11667	30.05
3.13333	30.05
3.15000	30.05
3.16667	30.05
3.18333	30.06
3.20000	30.06
3.21667	30.06
3.23333	30.06
3.25000	30.05
3.26667	30.05
3.28333	30.05
3.30000	30.05
3.31667	30.05
3.33333	30.05
3.35000	30.05
3.36667	30.06
3.38333	30.05
3.40000	30.05
3.41667	30.05
3.43333	30.05
3.45000	30.05
3.46667	30.06
3.48333	30.06
3.50000	30.06
3.51667	30.06
3.53333	30.05
3.55000	30.06
3.56667	30.06
3.58333	30.06
3.60000	30.06
3.61667	30.06
3.63333	30.06
3.65000	30.05
3.66667	30.06
3.68333	30.06
3.70000	30.06
3.71667	30.06
3.73333	30.06
3.75000	30.06
3.76667	30.06
3.78333	30.06
3.80000	30.05
3.81667	30.05
3.83333	30.06
3.85000	30.06
3.86667	30.06
3.88333	30.06
3.90000	30.06
3.91667	30.05
3.93333	30.05
3.95000	30.05
3.96667	30.05
3.98333	30.06
4.00000	30.05
4.01667	30.06
4.03333	30.05
4.05000	30.06
4.06667	30.06
4.08333	30.06
4.10000	30.06
4.11667	30.06
4.13333	30.06
4.15000	30.05
4.16667	30.05
4.18333	30.05
4.20000	30.06
4.21667	30.05
4.23333	30.05
4.25000	30.06
4.26667	30.06
4.28333	30.05
4.30000	30.05
4.31667	30.06
4.33333	30.06
4.35000	30.06
4.36667	30.06
4.38333	30.06
4.40000	30.06
4.41667	30.05
4.43333	30.06
4.45000	30.06
4.46667	30.06
4.48333	30.06
4.50000	30.06
4.51667	30.06
4.53333	30.06
4.55000	30.06
4.56667	30.05
4.58333	30.06
4.60000	30.06
4.61667	30.06
4.63333	30.06
4.65000	30.06
4.66667	30.06
4.68333	30.06
4.70000	30.06
4.71667	30.06
4.73333	30.06
4.75000	30.06
4.76667	30.06
4.78333	30.06
4.80000	30.06
4.81667	30.06
4.83333	30.06
4.85000	30.06
4.86667	30.05
4.88333	30.05
4.90000	30.05
4.91667	30.05
4.93333	30.05
4.95000	30.05
4.96667	30.05
4.98333	30.05
5.00000	30.05
5.01667	30.05
5.03333	30.05
5.05000	30.05
5.06667	30.05
5.08333	30.05
5.10000	30.05
5.11667	30.05
5.13333	30.05
5.15000	30.05
5.16667	30.05
5.18333	30.05
5.20000	30.05
5.21667	30.05
5.23333	30.05
5.25000	30.05
5.26667	30.05
5.28333	30.05
5.30000	30.05
5.31667	30.05
5.33333	30.05
5.35000	30.05
5.36667	30.05
5.38333	30.04
5.40000	30.04
5.41667	30.04
5.43333	30.04
5.45000	30.04
5.46667	30.04
5.48333	30.04
5.50000	30.04
5.51667	30.04
5.53333	30.04
5.55000	30.04
5.56667	30.04
5.58333	30.04
5.60000	30.04
5.61667	30.04
5.63333	30.04
5.65000	30.04
5.66667	30.04
5.68333	30.05
5.70000	30.05
5.71667	30.05
5.73333	30.05
5.75000	30.05
5.76667	30.05
5.78333	30.05
5.80000	30.05
5.81667	30.05
5.83333	30.05
5.85000	30.05
5.86667	30.05
5.88333	30.05
5.90000	30.05
5.91667	30.05
5.93333	30.05
5.95000	30.05
5.96667	30.05
5.98333	30.05
6.00000	30.05
6.01667	30.05
6.03333	30.05
6.05000	30.05
6.06667	30.05
6.08333	30.05
6.10000	30.05
6.11667	30.05
6.13333	30.05
6.15000	30.05
6.16667	30.05
6.18333	30.05
6.20000	30.05
6.21667	30.05
6.23333	30.05
6.25000	30.05
6.26667	30.05
6.28333	30.05
6.30000	30.05
6.31667	30.05
6.33333	30.05
6.35000	30.05
6.36667	30.05
6.38333	30.05
6.40000	30.05
6.41667	30.05
6.43333	30.05
6.45000	30.05
6.46667	30.05
6.48333	30.05
6.50000	30.05
6.51667	30.05
6.53333	30.05
6.55000	30.05
6.56667	30.05
6.58333	30.05
6.60000	30.05
6.61667	30.05
6.63333	30.05
6.65000	30.05
6.66667	30.05
6.68333	30.05
6.70000	30.05
6.71667	30.05
6.73333	30.05
6.75000	30.05
6.76667	30.05
6.78333	30.05
6.80000	30.05
6.81667	30.05
6.83333	30.05
6.85000	30.05
6.86667	30.05
6.88333	30.05
6.90000	30.05
6.91667	30.05
6.93333	30.05
6.95000	30.05
6.96667	30.05
6.98333	30.05
7.00000	30.05
7.01667	30.05
7.03333	30.05
7.05000	30.05
7.06667	30.05
7.08333	30.05
7.10000	30.05
7.11667	30.05
7.13333	30.05
7.15000	30.05
7.16667	30.05
7.18333	30.05
7.20000	30.05
7.21667	30.05
7.23333	30.05
7.25000	30.05
7.26667	30.05
7.28333	30.05
7.30000	30.05
7.31667	30.05
7.33333	30.05
7.35000	30.05
7.36667	30.05
7.38333	30.05
7.40000	30.05
7.41667	30.05
7.43333	30.05
7.45000	30.05
7.46667	30.05
7.48333	30.05
7.50000	30.05
7.51667	30.05
7.53333	30.06
7.55000	30.06
7.56667	30.06
7.58333	30.06
7.60000	30.06
7.61667	30.06
7.63333	30.06
7.65000	30.06
7.66667	30.06
7.68333	30.06
7.70000	30.06
7.71667	30.06
7.73333	30.06
7.75000	30.06
7.76667	30.06
7.78333	30.06
7.80000	30.06
7.81667	30.06
7.83333	30.06
7.85000	30.06
7.86667	30.06
7.88333	30.06
7.90000	30.06
7.91667	30.05
7.93333	30.06
7.95000	30.06
7.96667	30.05
7.98333	30.05
8.00000	30.05
8.01667	30.05
8.03333	30.05
8.05000	30.06
8.06667	30.05
8.08333	30.05
8.10000	30.05
8.11667	30.05
8.13333	30.05
8.15000	30.05
8.16667	30.05
8.18333	30.05
8.20000	30.05
8.21667	30.05
8.23333	30.05
8.25000	30.05
8.26667	30.05
8.28333	30.05
8.30000	30.05
8.31667	30.05
8.33333	30.06
8.35000	30.05
8.36667	30.05
8.38333	30.05
8.40000	30.05
8.41667	30.05
8.43333	30.05
8.45000	30.05
8.46667	30.05
8.48333	30.05
8.50000	30.05
8.51667	30.05
8.53333	30.05
8.55000	30.05
8.56667	30.05
8.58333	30.05
8.60000	30.05
8.61667	30.05
8.63333	30.05
8.65000	30.05
8.66667	30.05
8.68333	30.05
8.70000	30.05
8.71667	30.06
8.73333	30.05
8.75000	30.05
8.76667	30.06
8.78333	30.06
8.80000	30.05
8.81667	30.06
8.83333	30.05
8.85000	30.05
8.86667	30.05
8.88333	30.05
8.90000	30.06
8.91667	30.05
8.93333	30.05
8.95000	30.05
8.96667	30.05
8.98333	30.06
9.00000	30.06
9.01667	30.06
9.03333	30.06
9.05000	30.06
9.06667	30.06
9.08333	30.06
9.10000	30.06
9.11667	30.06
9.13333	30.06
9.15000	30.06
9.16667	30.06
9.18333	30.06
9.20000	30.06
9.21667	30.05
9.23333	30.05
9.25000	30.05
9.26667	30.05
9.28333	30.05
9.30000	30.05
9.31667	30.06
9.33333	30.05
9.35000	30.05
9.36667	30.05
9.38333	30.05
9.40000	30.05
9.41667	30.05
9.43333	30.05
9.45000	30.05
9.46667	30.05
9.48333	30.05
9.50000	30.05
9.51667	30.05
9.53333	30.05
9.55000	30.05
9.56667	30.05
9.58333	30.05
9.60000	30.05
9.61667	30.05
9.63333	30.05
9.65000	30.05
9.66667	30.05
9.68333	30.05
9.70000	30.05
9.71667	30.05
9.73333	30.05
9.75000	30.05
9.76667	30.05
9.78333	30.05
9.80000	30.05
9.81667	30.05
9.83333	30.05
9.85000	30.05
9.86667	30.05
9.88333	30.05
9.90000	30.06
9.91667	30.05
9.93333	30.05
9.95000	30.05
9.96667	30.06
9.98333	30.05
10.00000	30.05

[Fraction Collection Report]
# of Fractions	0
